# intensity: 0.992546991418736
# background: 1.27381855042993e-07
#           Q (1/A)             dQ (1/A)                    R                   dR               theory              fresnel
 0.00814898534565698 0.000100881906268643         1.0028149857       0.026680758399    0.992547118800592    0.117365479900915
 0.00864794410531005 0.000107302435616475        0.99042751589       0.019581769898    0.992547118800591    0.101422194967162
 0.00914909926466106 0.000113332156884855        0.97526573967       0.017477479889     0.99254711880059   0.0900798061591218
 0.00964915569087222 0.000119402273516863        0.97733936694       0.018630663038     0.99254711880059   0.0801748126107091
  0.0101514046730049 0.000125755709134047         1.0055662047       0.021904635702    0.992547118800592    0.071456046288263
  0.0106492673775128 0.000132020873607317         1.0072722482       0.016753672187    0.992547118800591   0.0638618052463868
   0.011149323251642 0.000138219440099516         1.0092503215       0.015200421412    0.992547118800592   0.0571223596214016
  0.0116482812192084 0.000144130757234769        0.99863882882       0.016183347089    0.992547118800591   0.0512218506128895
  0.0121483415186279 0.000150399927880104         1.0108320934       0.018959394908    0.992547118800591   0.0460141221818184
  0.0126494855328671 0.000156319942913491          1.001571203       0.014678135488    0.992547118800591   0.0414023522148236
  0.0131473459432262 0.000162855011091324        0.99606787558        0.01306638867    0.992547118800591   0.0373456739737813
  0.0136473981080788  0.00016862476054226        0.99570101871       0.013976953447    0.992547118800591   0.0337303197188321
  0.0141496446143468 0.000175101550387622        0.96492386403       0.015909163867    0.926582268596979   0.0305061449415186
  0.0146496956764525 0.000180858712037409        0.29853729964      0.0045234323149     0.28832210349553   0.0276489298773873
  0.0151519397279227 0.000187401637899423       0.091041665569      0.0017665984154   0.0943786672742834   0.0250920261216002
  0.0156497973470821 0.000193187380053635       0.054107259285      0.0012725959345   0.0568339292110763   0.0228283605970951
  0.0161476543534322 0.000199582859311245       0.044778230214      0.0011584667716   0.0446346475731502   0.0208029318521624
  0.0166498965402696  0.00020531800024183       0.041634676484      0.0010202702205   0.0404970997559865   0.0189718725858468
  0.0171499458110723 0.000211719579399325       0.040434400569     0.00095620602846   0.0394049906721672   0.0173361377418752
   0.017649993097015 0.000217719618399354       0.040671971574     0.00095498391888   0.0394086720389114   0.0158657860931679
  0.0181500409900968 0.000224222687485881       0.039160876085     0.00095840589537   0.0396943186678529   0.0145421499820092
   0.018647894616273 0.000230448073717489       0.040394590233     0.00090057339059    0.039896581465077   0.0133579692717308
  0.0191501332946794 0.000236421243208272       0.038694189652     0.00084823657128   0.0398785175020082   0.0122773162160916
  0.0196501776661803 0.000242606493104976       0.040015076151     0.00086672302786   0.0395925935635946   0.0113010985741451
  0.0201502225668202 0.000248584716597308       0.039655505957     0.00089231186217   0.0390272835249622   0.0104165640195731
  0.0206502666705996 0.000255153626710469       0.039110136541     0.00080732764561   0.0382000630235706  0.00961407397505847
  0.0211492129850604 0.000260924389051697       0.037679634734     0.00076364222052   0.0371428804608654  0.00888641762363945
  0.0216503510965777 0.000267400462010324       0.035760058898     0.00074326382574   0.0358815906252345  0.00822146983612675
  0.0221503926877758 0.000273039524349989       0.032458466074     0.00071594149805   0.0344588706342032  0.00761693795674231
  0.0226504320941142 0.000279457934511555       0.032977038255     0.00067252507815   0.0329057495046196  0.00706537955210064
  0.0231482770887786  0.00028519403972569       0.031298137563     0.00063459663976   0.0312615060395628   0.0065635559690236
   0.023648314686422 0.000291727171986318        0.02940670832     0.00061427693729   0.0295406771854148  0.00610241623743438
  0.0241483539632035 0.000297555584738408       0.027986113035     0.00061274959539   0.0277770253666103  0.00567997944620851
   0.024649487052494 0.000303846300068728       0.026296060191     0.00054825620247   0.0259915420765865  0.00529231392296376
  0.0251495235965424 0.000309802377219525       0.024843283769     0.00036923654869   0.0242320917825939  0.00494687089158548
  0.0275498971642619  0.00033970329054569       0.015863804636     0.00034611137862   0.0162741469529419  0.00360244245192515
  0.0299502478689345 0.000369396842912953      0.0097873889491     0.00024667846591  0.00999314275701766  0.00267101669113141
  0.0323505689925647 0.000398482120145676      0.0059986173617      0.0001780755475  0.00577270363929699  0.00201814052234735
  0.0347497663410421 0.000428174028839325      0.0035886562089     0.00012759627505  0.00341087200122029  0.00155096696313872
  0.0371489320156022  0.00045740331736699      0.0023939774203     9.6570713685e-05  0.00240953541164985  0.00121006167492661
  0.0395480612172491  0.00048717669918334      0.0022195595028     8.6250198048e-05  0.00221103960166532 0.000957003436653731
  0.0419482478389095 0.000515916288605173      0.0024497482871     8.4239715914e-05  0.00234197304922312 0.000766122548119063
  0.0443484051795263 0.000545962108805788      0.0023968558381     7.8414947515e-05   0.0024816852014944    0.000620183702031
   0.046749618103911 0.000575470560730133      0.0024989168421     7.4609860737e-05   0.0024700716428031 0.000507104072736486
  0.0491485873086736 0.000604988996048265      0.0023527378668     6.8107164389e-05  0.00227719505797087 0.000418567278608434
  0.0515475169465261 0.000634729921402081      0.0019551199801     5.8407370595e-05  0.00195460035827884 0.000348425001014333
  0.0539485953187036 0.000663753688224538      0.0015506561325     4.8705509304e-05   0.0015858572788828 0.000292254923249366
  0.0563496192027417 0.000693871316968822      0.0012425572307      4.136502222e-05  0.00124905951747663 0.000246906661821455
  0.0587495008791373 0.000722758710117442      0.0010072067616     3.5329379133e-05  0.00099302926805469 0.000209997359454492
  0.0611471297236647  0.00075258169623415     0.00083064976483     3.0653477276e-05  0.00083098343617525 0.000179733577802244
  0.0635501830692704 0.000781937719588442     0.00070148643546     2.6738091046e-05 0.000746579416969889 0.000154658524648551
  0.0659487977992612 0.000811357851264613     0.00074364232659     2.6218193221e-05 0.000708301152995064 0.000133828035851799
  0.0683495426048623 0.000840622603539256     0.00064851077462     2.3483852673e-05  0.00068237574375995  0.00011636509798943
  0.0707480348729657  0.00087040793463075     0.00061190144034      2.154090917e-05 0.000644382851418287 0.000101665311984237
   0.073148657951431 0.000900037637664505     0.00058158536549     2.0049147586e-05 0.000583982920258404 8.91998261089783e-05
  0.0755492090127853 0.000929288370034301     0.00049182366627     1.7816302173e-05 0.000504473060171256 7.85840936192331e-05
  0.0779496910880238 0.000959098634009504     0.00042882697909     1.5858495154e-05 0.000417912300053041 6.94995266799919e-05
  0.0803490068892118 0.000987950241143204      0.0003255240866     1.3406064075e-05 0.000338791415713486 6.16923678216456e-05
  0.0827493453592906  0.00101790555667788     0.00026941524487     1.1697546424e-05 0.000278216394298027 5.49479471354141e-05
  0.0851496080292661  0.00104688000137879     0.00025871674325     1.1054365615e-05 0.000240763433584937 4.91000273422418e-05
  0.0875487012663817  0.00107651481363541     0.00023811376756     1.0152315877e-05 0.000223880630253333 4.40121083764219e-05
  0.0899488108402148  0.00110635786812284     0.00023087942158     9.5237970252e-06 0.000219825810529296 3.95649401596098e-05
  0.0923488330559683  0.00113566343774578     0.00023269386793     9.2666966012e-06 0.000218988166614884 3.56659858687495e-05
  0.0947487709466362  0.00116502779109785     0.00021138803398     8.5407123321e-06 0.000213152656891525 3.22363323052084e-05
  0.0971486223212232  0.00119451290127935      0.0002051940177     8.0673178838e-06 0.000197789756017012 2.92099248379366e-05
  0.0995483849887343  0.00122419222333748     0.00016809571885     7.0632087828e-06 0.000172793590856852 2.65312953149588e-05
   0.101949152687556  0.00125331676899272     0.00015200019018     6.4816394144e-06 0.000141702052387749 2.41525750464223e-05
   0.104349829763182  0.00128310060217069     0.00011818195735     5.6531147819e-06 0.000109973682216887 2.20354427534091e-05
   0.106749313076373  0.00131205708841499     8.6831130713e-05     4.7407480793e-06 8.29164545707897e-05  2.0147041525293e-05
   0.109148698914509   0.0013416511801025     5.9744688206e-05     3.8970322875e-06 6.39964893935543e-05 1.84575173164765e-05
   0.111547995537568  0.00137117691616657      5.207929617e-05     3.5766599763e-06 5.40870797655187e-05  1.6942325068983e-05
   0.113949363369776  0.00140070778650674     5.3036748516e-05     3.5263670895e-06 5.15820340075584e-05 1.55791626706556e-05
   0.116347358575617  0.00143071840990071     5.1074899031e-05     3.3652183835e-06  5.3269248634778e-05 1.43528434528227e-05
   0.118746329803535  0.00145944163246862     5.3243259768e-05     3.2635314014e-06  5.5541107239754e-05 1.32452081439106e-05
    0.12114957768397  0.00148916969367461     5.4718022207e-05     3.1845521375e-06    5.55213091987e-05  1.2241490748099e-05
   0.123549425008423  0.00151832017311962     5.3305374329e-05     3.0807654235e-06 5.17740646365501e-05 1.13330521952979e-05
   0.125950260344487  0.00154801550279831     4.5914290983e-05     2.8370595611e-06 4.44527631041193e-05 1.05077848174831e-05
   0.128347695025186  0.00157696700212419     3.4545680546e-05     2.4413303553e-06 3.49601295960544e-05 9.75803323782535e-06
   0.130748297910934  0.00160640616349169     2.5127712067e-05     2.1086311778e-06 2.52168809960501e-05  9.0738485578101e-06
   0.133150968694608  0.00163606447330116     1.6463225641e-05     1.8176320813e-06 1.70269272275726e-05 8.44877179089251e-06
   0.135548041490213  0.00166549656967121     1.0581688791e-05     1.6203411969e-06 1.15251200973051e-05 7.87856165882745e-06
    0.13794827901032  0.00169523981820997     9.4928118862e-06     1.4912648692e-06 8.89657623518285e-06 7.35566858323247e-06
   0.140347294638815  0.00172411289247215     8.6148850931e-06     1.4157554234e-06  8.5549519364697e-06 6.87631642626805e-06
   0.142748373274881  0.00175402852453271     8.8192348953e-06     1.4065919856e-06 9.43551121091699e-06 6.43566366036936e-06
   0.145151506418175  0.00178271448111938       6.93876563e-06     1.3750226761e-06 1.04140471933474e-05 6.03001333239118e-06
   0.147549037624836  0.00181254587583171     9.0220388858e-06     1.3312638373e-06 1.06562794855226e-05  5.6572694336257e-06
   0.149949712235018  0.00184197499192872     9.0450621379e-06     1.2694199143e-06 9.81580381213949e-06 5.31303083111042e-06
   0.152348061417717  0.00187114346342833     7.0736206646e-06     1.1924310635e-06 8.02665660814344e-06 4.99543836144738e-06
   0.154748466927391  0.00190075985673535     4.9052381624e-06     1.1473169675e-06 5.74636318102982e-06 4.70153497099125e-06
   0.157149814797774  0.00193022674477556     3.1194251551e-06     1.0373746702e-06  3.5384401797325e-06 4.42935814889498e-06
   0.159548837290922  0.00195971606361542     5.6397645564e-07     9.1714076318e-07 1.85954200285252e-06 4.17736878269534e-06
   0.161949905500587  0.00198886427099458     5.7599798845e-07     9.1115353472e-07 9.18521846072304e-07  3.9433401993287e-06
   0.164350814844902  0.00201847169171742    -1.1383710872e-07     9.2294990906e-07 6.68445539237307e-07 3.72597787974171e-06
   0.166749392622375  0.00204724375445134     2.3844022508e-07     8.8970501943e-07 8.68410399773456e-07 3.52404919268259e-06
   0.169148912480375  0.00207705690088785     8.9031565345e-07     8.4886118038e-07 1.20941539552034e-06 3.33601258767433e-06
   0.171549376868705  0.00210601927860969     3.2712568326e-07     8.1322285305e-07 1.43339054632842e-06 3.16073078737364e-06
   0.173948573426216  0.00213546738333988     1.7592417164e-08     8.1811523502e-07 1.41043681887033e-06  2.9973339948802e-06
   0.176346538022948  0.00216541564290009     7.6574609122e-07     8.1239125128e-07 1.15527357178372e-06 2.84486418176575e-06
   0.178746500675523  0.00219435324710448     9.0131229191e-07     7.5689594818e-07 7.86093579873496e-07 2.70226250962035e-06
   0.181147418448011  0.00222401659011923     1.1172606899e-06     7.3471932141e-07 4.55456217520806e-07 2.56883863647357e-06
   0.183547069449801  0.00225305917898203     6.8181884721e-07     7.2937636225e-07 2.80599545874682e-07 2.44400302915917e-06
   0.185949819092012  0.00228255963703671     8.8500482018e-07     7.2818308754e-07 2.99768953591569e-07 2.32689564118516e-06
   0.188349133842997  0.00231160041814504     1.5220754556e-06     6.9056739225e-07 4.67565269684013e-07 2.21724208507057e-06
   0.190748275988692  0.00234106060020281      6.605346227e-07      6.465807618e-07 6.84477284103991e-07 2.11434249492539e-06
   0.193149433049168  0.00237020981432792     9.2444217358e-07     6.5733504606e-07 8.43921365484869e-07 2.01761633360133e-06
   0.195550391914222  0.00239980906883307     1.2822923089e-06     6.7579946587e-07 8.75735276351712e-07 1.92671003109855e-06
   0.197951192103674  0.00242931711779216     1.1375711633e-06     6.2856644667e-07 7.71762347433997e-07 1.84120590105614e-06
   0.200349621307937  0.00245833055297333     9.6060931872e-07     6.0881281356e-07 5.83650789676994e-07 1.76079472472811e-06
    0.20274786690696  0.00248794821971793    -1.2553825302e-07     5.9752248459e-07 3.97013182878278e-07 1.68504946004138e-06
   0.205148094740298  0.00251683083475781    -5.3436689547e-07     6.2230539742e-07 2.95480348151512e-07 1.61358387522289e-06
   0.207550343797391   0.0025464111805969    -1.0372429282e-06     5.5674350023e-07 3.28510490997073e-07 1.54611409345746e-06
    0.20994800401049  0.00257563228188071     3.2864483589e-07     5.5334026144e-07 4.92754076153673e-07 1.48254558319251e-06
   0.212347681037363  0.00260486142100237     2.0967129057e-07     5.4456063729e-07 7.36631629482425e-07 1.42245388940034e-06
   0.214746066574339  0.00263410195383717    -6.1014744408e-08     5.5585137067e-07 9.80041038593171e-07 1.36567972167404e-06
   0.217147519859345   0.0026634460810358     1.3862339927e-06     5.4587983579e-07 1.14551742801198e-06 1.31191490500935e-06
   0.219549888332938  0.00269296755181142     8.3631909655e-07     5.0843133721e-07 1.18366971320032e-06 1.26101670411444e-06
   0.221948751088005  0.00272199418086869     9.4104956898e-07     5.0431143191e-07 1.08995282974642e-06 1.21288993823905e-06
   0.224351805804489  0.00275152701937726     1.8156925898e-06     5.3352785027e-07 9.02488568718274e-07 1.16721216485889e-06
   0.226748092000103  0.00278039297508332      1.336704909e-06     5.0517595047e-07 6.88030747948837e-07 1.12402918799328e-06
    0.22914852370713  0.00280997873365304     6.3929228991e-07     4.6602876017e-07 5.15101258458197e-07  1.0829957423202e-06
   0.231546578600359  0.00283870311691757     4.0124529306e-07     4.5470089417e-07   4.341048276148e-07 1.04408853461496e-06
   0.233948773444285   0.0028681141939254     2.2213183525e-07     4.6360685727e-07 4.60839462075793e-07 1.00707916602845e-06
   0.236348587054435  0.00289773290630081     1.2119784631e-06     4.6932827219e-07 5.74687472969337e-07 9.71952226954512e-07
   0.238748162439138  0.00292674430311075      1.116828311e-06     4.3827219424e-07 7.28309751514282e-07 9.38626430045591e-07
   0.241149704325883  0.00295611556448225     9.1869519974e-07     4.2425929703e-07 8.66097291991762e-07 9.07513367393055e-07
   0.243549952152988  0.00298508768363104      1.126060491e-06     4.3408981874e-07 9.48485086458529e-07 8.80598362654344e-07
   0.245949954384566  0.00301457179612348     1.6852930608e-06     4.5127815251e-07  9.7507980606798e-07 8.60492244634163e-07
    0.24834975067039  0.00304346981825077     8.5931164837e-07     4.3026744468e-07 9.71953302890648e-07 8.47438600005462e-07
