# intensity: 0.994225002795139
# background: 5.45611752683648e-08
#           Q (1/A)             dQ (1/A)                    R                   dR               theory              fresnel
 0.00828394595712192 8.45827417007304e-05         1.0028149857       0.026680758399    0.994225057356315    0.115664321862857
  0.0087829046265198 9.09380702859084e-05        0.99042751589       0.019581769898    0.994225057356311    0.100591175385779
  0.0092840596898637 9.69466032329575e-05        0.97526573967       0.017477479889    0.994225057356314   0.0894684415311372
 0.00978411601492948 0.000102993798055579        0.97733936694       0.018630663038    0.994225057356313   0.0797403314061295
  0.0102863648900952 0.000109307347692317         1.0055662047       0.021904635702    0.994225057356312   0.0711642711552998
  0.0107842274832508 0.000115539625662253         1.0072722482       0.016753672187    0.994225057356317   0.0636845880103109
  0.0112842832402061 0.000121714905813925         1.0092503215       0.015200421412    0.994225057356314    0.057036084370483
  0.0117832410855304 0.000127622836434991        0.99863882882       0.016183347089    0.994225057356315   0.0512090463559404
  0.0122833012571006 0.000133867752123671         1.0108320934       0.018959394908    0.994225057356314   0.0460562985054081
   0.012784445137853 0.000139786917052013          1.001571203       0.014678135488    0.994225057356314   0.0414869430011689
  0.0132823054102863 0.000146284464504817        0.99606787558        0.01306638867    0.994225057356314   0.0374632384118077
  0.0137823574312747 0.000152062348499201        0.99570101871       0.013976953447    0.994225057356314   0.0338720660193257
   0.014284603787669 0.000158511400866793        0.96492386403       0.015909163867    0.945866967871147   0.0306658292509669
  0.0147846546952016 0.000164277467032543        0.29853729964      0.0045234323149    0.293305892415899   0.0278209215400394
  0.0152868985860426 0.000170792169343078       0.091041665569      0.0017665984154   0.0947803268179427   0.0252723912441727
  0.0157847560406562 0.000176584325836242       0.054107259285      0.0012725959345   0.0566021690274525   0.0230135188980769
  0.0162826128771645 0.000182958493018977       0.044778230214      0.0011584667716   0.0443687501422853   0.0209895719274212
  0.0167848548872976 0.000188704596542168       0.041634676484      0.0010202702205    0.040331302136121   0.0191588804627172
  0.0172849039768129 0.000195087354117769       0.040434400569     0.00095620602846   0.0393525727602816   0.0175212673782409
  0.0177849510761261  0.00020108608278141       0.040671971574     0.00095498391888   0.0394551442240137   0.0160480299822699
   0.018284998777235 0.000207568084212166       0.039160876085     0.00095840589537     0.03981884963796   0.0147201636302385
  0.0187828522069728 0.000213783260693482       0.040394590233     0.00090057339059   0.0400773470019943   0.0135314559460151
  0.0192850906818442  0.00021975809490374       0.038694189652     0.00084823657128   0.0400981787981803   0.0124456836423604
  0.0197851348453447  0.00022593631999222       0.040015076151     0.00086672302786   0.0398361430532635    0.011463867535799
  0.0202851795326408 0.000231915176084754       0.039655505957     0.00089231186217   0.0392819989433675    0.010573602196531
  0.0207852234177338 0.000238464473141317       0.039110136541     0.00080732764561   0.0384557168970966  0.00976525647433676
  0.0212841695086629 0.000244242779801631       0.037679634734     0.00076364222052   0.0373913570755735  0.00903172532905013
  0.0217853073903117 0.000250703955489804       0.035760058898     0.00074326382574   0.0361165182242808  0.00836089560747148
  0.0222853487467954 0.000256354997458889       0.032458466074     0.00071594149805    0.034675562080026  0.00775055083461678
  0.0227853879130773  0.00026276063743816       0.032977038255     0.00067252507815   0.0331006577456603  0.00719330731230514
  0.0232832326634307 0.000268504475665211       0.031298137563     0.00063459663976   0.0314326885236038  0.00668607661423901
  0.0237832700103558 0.000275022115770804        0.02940670832     0.00061427693729   0.0296858963213075  0.00621946717330951
  0.0242833090310751 0.000280856176454128       0.027986113035     0.00061274959539   0.0278959968491368  0.00579183205929537
  0.0247844418583826 0.000287139540933463       0.026296060191     0.00054825620247   0.0260839615355638  0.00539900643863147
  0.0252844781356722 0.000293097524133508       0.024843283769     0.00036923654869   0.0242986838130105  0.00504845574739696
   0.027684850348455 0.000322973509968239       0.015863804636     0.00034611137862   0.0162361317306623  0.00368341850823537
  0.0300851995750752 0.000352651168144215      0.0097873889491     0.00024667846591  0.00989668379179019  0.00273599252668499
  0.0324855190975413 0.000381735992462561      0.0059986173617      0.0001780755475  0.00566280150306457  0.00207046349314363
  0.0348847147225571 0.000411415298977009      0.0035886562089     0.00012759627505  0.00331807439826162  0.00159333755884495
  0.0372838785506578 0.000440642245784202      0.0023939774203     9.6570713685e-05  0.00234730567180831  0.00124459493966619
  0.0396830057828514 0.000470404210632513      0.0022195595028     8.6250198048e-05  0.00217915234602623 0.000985342027873372
  0.0420831903110827 0.000499150816119166      0.0024497482871     8.4239715914e-05  0.00233229338933559 0.000789536466920651
  0.0444833454351577 0.000529182816176747      0.0023968558381     7.8414947515e-05   0.0024836780946701 0.000639660221305604
  0.0468845560188007  0.00055868697260929      0.0024989168421     7.4609860737e-05  0.00247475997759661 0.000523410281736632
  0.0492835227619232 0.000588201073291979      0.0023527378668     6.8107164389e-05  0.00227909435815546 0.000432307057271067
  0.0516824498151444 0.000617935193956369      0.0019551199801     5.8407370595e-05  0.00195192087003361 0.000360071173924904
  0.0540835254771722 0.000646962145675629      0.0015506561325     4.8705509304e-05  0.00157955198472645 0.000302180110071308
  0.0564845465278606 0.000677069596965704      0.0012425572307      4.136502222e-05  0.00124142015528423 0.000255410400332913
  0.0588844252490743 0.000705961685412065      0.0010072067616     3.5329379133e-05 0.000986364032079061 0.000217320119926803
  0.0612820510182085 0.000735778410011667     0.00083064976483     3.0653477276e-05 0.000826754549991566 0.000186069843921833
  0.0636851011581093 0.000765134356290563     0.00070148643546     2.6738091046e-05 0.000745131501096443 0.000160163611822402
  0.0660837125651568 0.000794553253657608     0.00074364232659     2.6218193221e-05 0.000709037394465019 0.000138632041823549
  0.0684844539216446 0.000823818692855538     0.00064851077462     2.3483852673e-05 0.000684239756192359 0.000120573125512122
  0.0708829426207612 0.000853599494509826     0.00061190144034      2.154090917e-05 0.000646347207799217 0.000105365227609751
  0.0732835620038432 0.000883226687515524     0.00058158536549     2.0049147586e-05 0.000585401992217649  9.2463784663362e-05
  0.0756841092466402 0.000912478478133386     0.00049182366627     1.7816302173e-05  0.00050520563975962 8.14727589928884e-05
  0.0780845873801428 0.000942284954392881     0.00042882697909     1.5858495154e-05   0.0004182324841197  7.2063802844969e-05
  0.0804838991183025  0.00097114093527786      0.0003255240866     1.3406064075e-05 0.000339168995074521 6.39752775182001e-05
  0.0828842334003538   0.0010010915658569     0.00026941524487     1.1697546424e-05 0.000279075356071243 5.69856842146409e-05
  0.0852844917591347  0.00103006935695601     0.00025871674325     1.1054365615e-05 0.000242308415690598  5.0923471223828e-05
  0.0876835805639371  0.00105970220800302     0.00023811376756     1.0152315877e-05 0.000226039022880206 4.56477034826894e-05
  0.0900836855802998  0.00108954199599245     0.00023087942158     9.5237970252e-06  0.00022230475245559 4.10351861597915e-05
  0.0924837031154374  0.00111884840540115     0.00023269386793     9.2666966012e-06 0.000221401602872219  3.6990308883874e-05
  0.0948836362023383  0.00114821317861889     0.00021138803398     8.5407123321e-06 0.000215162889219405 3.34314993121474e-05
  0.0972834826500119  0.00117769789394124      0.0002051940177     8.0673178838e-06 0.000199210074969292 3.02904551291802e-05
  0.0996832402674674  0.00120737557387521     0.00016809571885     7.0632087828e-06 0.000173622804375218 2.75098027423792e-05
   0.102084002790705  0.00123650232038465     0.00015200019018     6.4816394144e-06 0.000142090357924802 2.50400107473279e-05
   0.104484674567496  0.00126628406674529     0.00011818195735     5.6531147819e-06 0.000110144415639097 2.28414215121515e-05
   0.106884152461121   0.0012952436951856     8.6831130713e-05     4.7407480793e-06 8.30760358370244e-05 2.08800069671769e-05
   0.109283532756567  0.00132483692310903     5.9744688206e-05     3.8970322875e-06 6.42696034611941e-05 1.91248831495648e-05
   0.111682823713794   0.0013543622816301      5.207929617e-05     3.5766599763e-06 5.44910921765317e-05 1.75506123946137e-05
   0.114084185751757  0.00138389295511567     5.3036748516e-05     3.5263670895e-06  5.2045409425301e-05 1.61340860717882e-05
   0.116482175048159  0.00141390044663447     5.1074899031e-05     3.3652183835e-06 5.36782581895193e-05 1.48595762315475e-05
   0.118881140240898  0.00144262801118307     5.3243259768e-05     3.2635314014e-06 5.57935415798483e-05 1.37082567274379e-05
   0.121284381951687  0.00147235504189102     5.4718022207e-05     3.1845521375e-06 5.55653796158298e-05 1.26648152443873e-05
   0.123684222991651  0.00150150747082814     5.3305374329e-05     3.0807654235e-06  5.1622652630698e-05 1.17203040935821e-05
   0.126085051917061  0.00153120189842472     4.5914290983e-05     2.8370595611e-06 4.41683781439521e-05 1.08621623708119e-05
    0.12848248007283  0.00156015622480347     3.4545680546e-05     2.4413303553e-06 3.46237777839666e-05 1.00824539508111e-05
   0.130883076301489  0.00158959586444667     2.5127712067e-05     2.1086311778e-06 2.48935376953247e-05 9.37085246488609e-06
   0.133285740298547   0.0016192537100243     1.6463225641e-05     1.8176320813e-06 1.67425083170341e-05 8.72065709624186e-06
   0.135682806199917  0.00164868617869633     1.0581688791e-05     1.6203411969e-06 1.12619581000789e-05 8.12747173628755e-06
   0.138083036693134  0.00167842851667492     9.4928118862e-06     1.4912648692e-06 8.60793572318204e-06 7.58345563185099e-06
   0.140482045174757  0.00170730481940362     8.6148850931e-06     1.4157554234e-06 8.19026749281416e-06 7.08469139756794e-06
     0.1428831165341  0.00173721886581465     8.8192348953e-06     1.4065919856e-06 8.96554479055319e-06 6.62615095981981e-06
   0.145286242270507  0.00176590909992561       6.93876563e-06     1.3750226761e-06 9.84626499953786e-06 6.20399599898921e-06
   0.147683765963969  0.00179573918931367     9.0220388858e-06     1.3312638373e-06  1.0034763851111e-05  5.8160526779096e-06
   0.150084432927403  0.00182516904911702     9.0450621379e-06     1.2694199143e-06 9.20566435505985e-06 5.45774710155448e-06
   0.152482774347142   0.0018543393014215     7.0736206646e-06     1.1924310635e-06 7.49111940549329e-06 5.12714983892719e-06
   0.154883171963459  0.00188395564543526     4.9052381624e-06     1.1473169675e-06 5.32464943265495e-06 4.82118760373278e-06
     0.1572845118135  0.00191342321484284     3.1194251551e-06     1.0373746702e-06 3.23260043367165e-06 4.53782189060331e-06
   0.159683526170316   0.0019429130266739     5.6397645564e-07     9.1714076318e-07 1.63494322876021e-06 4.27545170779824e-06
   0.162084586112837   0.0019720632651744     5.7599798845e-07     9.1115353472e-07 7.18230633397551e-07 4.03176709672739e-06
   0.164485487066616  0.00200167083366174    -1.1383710872e-07     9.2294990906e-07 4.33989859070405e-07 3.80542071477088e-06
   0.166884056337924  0.00203044630875128     2.3844022508e-07     8.8970501943e-07  5.6106356040074e-07 3.59513186251494e-06
   0.169283567562605  0.00206025876013031     8.9031565345e-07     8.4886118038e-07 8.23294670258983e-07  3.3992974807989e-06
   0.171684023190284  0.00208922385837141     3.2712568326e-07     8.1322285305e-07  9.9690258699076e-07  3.2167353739601e-06
   0.174083210867885  0.00211867273307621     1.7592417164e-08     8.1811523502e-07 9.75783173737734e-07 3.04654146508267e-06
   0.176481166465486  0.00214861984052512     7.6574609122e-07     8.1239125128e-07 7.80043776614374e-07 2.88771963382824e-06
   0.178881119987503  0.00217756022759574     9.0131229191e-07     7.5689594818e-07 5.14027216213103e-07 2.73916852412251e-06
   0.181282028501719  0.00220722370024177     1.1172606899e-06     7.3471932141e-07 3.02466043499946e-07 2.60017026380081e-06
    0.18368167012609  0.00223626865686665     6.8181884721e-07     7.2937636225e-07  2.3054298529392e-07 2.47011200533482e-06
   0.186084410254507  0.00226576996435517     8.8500482018e-07     7.2818308754e-07 3.11292108212766e-07    2.34809876516e-06
   0.188483715381194  0.00229481309452595     1.5220754556e-06     6.9056739225e-07 4.88338203578916e-07 2.23384571308293e-06
   0.190882847779252  0.00232427413975455      6.605346227e-07      6.465807618e-07 6.68581515911925e-07 2.12662451937463e-06
   0.193283994959697  0.00235342540017213     9.2444217358e-07     6.5733504606e-07 7.65678298896203e-07 2.02583107770577e-06
   0.195684943821263  0.00238302515456022     1.2822923089e-06     6.7579946587e-07 7.36329030660987e-07 1.93109767746167e-06
   0.198085733883605  0.00241253403757684     1.1375711633e-06     6.2856644667e-07 5.96627670173208e-07 1.84198971818189e-06
   0.200484152846636  0.00244154987937971     9.6060931872e-07     6.0881281356e-07 4.12232831422716e-07 1.75818557143133e-06
   0.202882388081135  0.00247116794865856    -1.2553825302e-07     5.9752248459e-07  2.6880689047162e-07 1.67924072106009e-06
   0.205282605417129  0.00250005346936838    -5.3436689547e-07     6.2230539742e-07 2.37200094205571e-07 1.60475311062432e-06
   0.207684843843548   0.0025296345401361    -1.0372429282e-06     5.5674350023e-07 3.46188814202077e-07 1.53442727913799e-06
   0.210082493322063  0.00255885735491609     3.2864483589e-07     5.5334026144e-07 5.70810484780774e-07 1.46816515803187e-06
   0.212482159481039  0.00258808826788808     2.0967129057e-07     5.4456063729e-07 8.44373607413798e-07 1.40552404860551e-06
   0.214880534031701  0.00261733049558331    -6.1014744408e-08     5.5585137067e-07 1.08200874803244e-06  1.3463394147016e-06
    0.21728197619184  0.00264667612497908     1.3862339927e-06     5.4587983579e-07 1.21244626945695e-06 1.29028974458404e-06
   0.219684333411641  0.00267619860726133     8.3631909655e-07     5.0843133721e-07  1.2007557573143e-06 1.23722651324186e-06
   0.222083184804876  0.00270522762652712     9.4104956898e-07     5.0431143191e-07 1.05994339632263e-06 1.18705076823037e-06
   0.224486228014939  0.00273476150124499     1.8156925898e-06     5.3352785027e-07 8.42748920950524e-07 1.13942656188682e-06
   0.226882502612197  0.00276363022960757      1.336704909e-06     5.0517595047e-07 6.23749922270982e-07  1.0944018888374e-06
   0.229282922576277   0.0027932168050661     6.3929228991e-07     4.6602876017e-07 4.70474325775646e-07 1.05161694659968e-06
   0.231680965613706  0.00282194442859828     4.0124529306e-07     4.5470089417e-07 4.24838581062998e-07 1.01104764630841e-06
   0.234083148456591  0.00285135691539708     2.2213183525e-07     4.6360685727e-07  4.9015136635719e-07 9.72455979173128e-07
   0.236482949952866  0.00288097638565991     1.2119784631e-06     4.6932827219e-07 6.33263157994178e-07 9.35826043481797e-07
   0.238882513100214  0.00290999025833428      1.116828311e-06     4.3827219424e-07 7.98504986758755e-07 9.01069020065274e-07
    0.24128404261471  0.00293936306517257     9.1869519974e-07     4.2425929703e-07 9.28552632826512e-07 8.68597382981769e-07
   0.243684277951385  0.00296833779376565      1.126060491e-06     4.3408981874e-07 9.90241330285858e-07 8.40469485213284e-07
   0.246084267568981  0.00299782311438661     1.6852930608e-06     4.5127815251e-07 9.94398697256732e-07 8.19448074291267e-07
   0.248484051117061  0.00302672393398328     8.5931164837e-07     4.3026744468e-07 9.74264776000392e-07 8.05821218896199e-07
