# intensity: 1
# background: 0
#           Q (1/A)             dQ (1/A)                    R                   dR               theory              fresnel
          0.00877296 8.57369676736154e-05   0.0320525092291951 0.000614051069758991     0.03212484179733    0.029835313051574
           0.0100889 9.85973994514066e-05   0.0219713775179215 0.000443918376177684   0.0222443443780897   0.0203303833260193
           0.0114048 0.000111457409223373   0.0155996952653364 0.000327808107676216   0.0155324807874377   0.0139317259110974
           0.0127208 0.000124318361121249   0.0116147502100106 0.000248750833761992   0.0111532403258798  0.00979955953919311
           0.0140367 0.000137178296537108  0.00791001040883224 0.000193219838612407  0.00821496578853427  0.00705786564883029
           0.0153526 0.000150038188692536   0.0060431766163897 0.000153149484242887  0.00619145706016747   0.0051923723901502
           0.0166685 0.000162898033531676  0.00468009574175231 0.000123551519251737  0.00476431828655366  0.00389359099940674
           0.0179845 0.000175758804258743  0.00378646431852284 0.000101234099966858  0.00373556239383449   0.0029701885930231
           0.0193004 0.000188618542293017   0.0030835532037725 8.41005297270757e-05  0.00297921569270465  0.00230115619552623
           0.0206163 0.000201478220842578  0.00241214176379999 7.07309361586013e-05  0.00241292586985307  0.00180790938504969
           0.0219322 0.000214337835851184  0.00204549220044959 6.01700777539502e-05  0.00198346113831003  0.00143991365710642
           0.0241253 0.000235769723821315  0.00137835333149629 4.69540106999985e-05  0.00147085358226149   0.0010102754492182
           0.0263185   0.0002572023824813  0.00114687780460729 3.74832867009941e-05  0.00112302056272253 0.000727255937298829
           0.0285116 0.000278633838586312 0.000872532226577686 3.05300733127846e-05 0.000880478404412979 0.000536105130117297
           0.0307047 0.000300065050592837 0.000664450118199243 2.53014940718828e-05 0.000706427294624437 0.000403456940222137
           0.0328977 0.000321495022526369 0.000553893824354299 2.12870497801285e-05 0.000578338912686677 0.000309199063991531
           0.0350908 0.000342925690002228 0.000477252377838893 1.81471760122314e-05 0.000481934801004217  0.00024079520908278
           0.0372838 0.000364355079865535 0.000402012079922598 1.56509330278236e-05 0.000407921915573246 0.000190224536227627
           0.0394768 0.000385784150525367 0.000363864088556568  1.3636925136056e-05 0.000350069187132138 0.000152207784785014
           0.0416698  0.00040721288319657 0.000306273445259768  1.1990265469852e-05 0.000304109375380645 0.000123197382263623
           0.0438627 0.000428640281974596 0.000258221309719629  1.0630105156392e-05 0.000267182030059746 0.000100847386515461
           0.0473713 0.000462922940267723 0.000228702264899321 8.89543862473238e-06 0.000221428110481279 7.46260831389862e-05
           0.0508798 0.000497203583214105 0.000177281494671422 7.55630567423863e-06 0.000187129320846568 5.63101279992736e-05
           0.0543882 0.000531482133943782 0.000170472489211464 6.50166472175262e-06 0.000160798638508822 4.32732942993134e-05
           0.0578966 0.000565759492576199  0.00015024842449517 5.65470988016372e-06 0.000140061755622207 3.37934566003801e-05
           0.0614048  0.00060003362821969 0.000115911443728886 4.96275224905702e-06 0.000123344160831849  2.6769236929533e-05
           0.0649128 0.000634304464109654 0.000112674413164962 4.38864680783683e-06 0.000109572051300585 2.14764342768435e-05
           0.0684208 0.000668573877234887 9.93715841546475e-05 3.90577392358481e-06 9.79968107864777e-05 1.74276866206176e-05
           0.0719286 0.000702839836928123 8.99833159886553e-05 3.49471741925985e-06 8.80883684521006e-05  1.4288609968156e-05
           0.0754363  0.00073710324321804 7.94165122974636e-05 3.14102251940302e-06 7.94639594839064e-05 1.18247934715957e-05
           0.0789438 0.000771363042478343 7.26789878189958e-05  2.8338188162619e-06 7.18449675832549e-05 9.86941103331294e-06
           0.0824512 0.000805620134643632 6.68817606782222e-05 2.56478562282198e-06 6.50261207747464e-05 8.30166537689284e-06
           0.0859585 0.000839874442811113 5.63090783836245e-05 2.32732567242402e-06 5.88446920384455e-05 7.02829541376277e-06
            0.087712 0.000856999430181491 5.52151248305851e-05 2.21896365075281e-06 5.59657393706593e-05 6.48424139828687e-06
            0.091219 0.000891247953378265 4.63114052752107e-05 2.02039658963257e-06 5.05796214282577e-05 5.55121792100042e-06
           0.0947258 0.000925492523961103 4.76315593726021e-05 1.84271422552988e-06 4.56018160522545e-05 4.77644774494595e-06
           0.0982324 0.000959733065178519 4.28506853939723e-05 1.68325044593878e-06 4.09919807023846e-05  4.1322002148058e-06
            0.101739  0.00099397145301271 3.44623129274125e-05 1.53968251183987e-06 3.67115357726621e-05 3.59292366312002e-06
            0.105245  0.00102820175250849 3.17191410753929e-05 1.41014397531074e-06 3.27335261340586e-05 3.13883708981829e-06
            0.108751  0.00106242974511247 3.06914125480113e-05  1.2930415379737e-06 2.90373586699358e-05 2.75423290402604e-06
            0.112257   0.0010966553536645  2.5219679968549e-05 1.18707178137908e-06 2.56087982506295e-05 2.42674007399671e-06
            0.115762   0.0011308687400236   2.300780360168e-05 1.09115648348827e-06 2.24383827760543e-05  2.1465577973812e-06
            0.119268  0.00116508934960268 2.05099139749459e-05 1.00430085241202e-06 1.95164866652637e-05 1.90558664136962e-06
            0.122773  0.00119929758402514 1.66341390560783e-05  9.2574068579407e-07 1.68384096076963e-05 1.69753969000896e-06
            0.126278  0.00123350312701843 1.51836610547383e-05 8.54738634216562e-07 1.43975330521517e-05 1.51711415975622e-06
            0.129782  0.00126769614344654 1.21623229453425e-05 7.90679406923095e-07 1.21886643540549e-05 1.36006784888338e-06
            0.133287   0.0013018960725967 9.38254939203841e-06 7.32956049019094e-07 1.02042267138703e-05 1.22278277358647e-06
            0.136791  0.00133608332224885  8.0308027304965e-06 6.81080771476537e-07  8.4381832941086e-06 1.10241639213999e-06
            0.140295  0.00137026757298047  6.4153185747581e-06 6.34553005945387e-07 6.88171149237583e-06 9.96497886045506e-07
            0.143798  0.00140443899299659   5.670586648543e-06 5.92928326919355e-07 5.52577063517877e-06 9.03021163191553e-07
            0.147302  0.00143861701473919 4.37599015665987e-06  5.5574993032618e-07  4.3589885809516e-06 8.20227537393063e-07
            0.150805  0.00147278205283279 3.86345622867804e-06 5.22596212039555e-07 3.36778662480915e-06 7.46605733176829e-07
            0.153432  0.00149840122771363 2.83187805944948e-06 5.00196721847064e-07 2.73807058614788e-06 6.96944565201283e-07
             0.15781  0.00154109238113463 9.91536034629198e-07 4.66988385684784e-07  1.8802937275742e-06 6.23102967344939e-07
            0.162187   0.0015837683784041 1.70598635507003e-06 4.38240254443983e-07 1.23091209426546e-06 5.58576563775222e-07
            0.166564  0.00162643882017072  1.2093859419073e-06 4.13337933293168e-07 7.67252288984767e-07 5.02188231051129e-07
            0.170941  0.00166910355507407 -1.05001681025036e-07  3.9166220753793e-07 4.60593277648452e-07 4.52737568714463e-07
            0.175317  0.00171175268617424 7.39938045882126e-07 3.72658463145768e-07 2.82731163186603e-07 4.09234668096885e-07
            0.179693  0.00175439581012229 4.20071436458777e-07  3.5582951649974e-07 2.06560052478487e-07 3.70832676938472e-07
            0.184068  0.00179702303265721 -5.18802279920903e-08 3.40755700177033e-07 2.06867003238925e-07 3.36837782693736e-07
            0.188442  0.00183963420642077 1.98018468175031e-07 3.27081598321799e-07 2.60755872951924e-07 3.06656507607823e-07
            0.192816  0.00188223892383246 -1.09046984185357e-07 3.14514262988809e-07 3.48109409495109e-07 2.79780623090125e-07
            0.197189  0.00192482729493714 4.62390799574309e-07 3.02826077538965e-07 4.51788813276188e-07 2.55790331309267e-07
            0.201562   0.0019674089091114 8.11707104839422e-07 2.91836162631304e-07 5.57835393894521e-07 2.34316809000114e-07
            0.205934  0.00200997387939359 4.24631175473475e-07 2.81413446334902e-07  6.5538144109365e-07 2.15053943709174e-07
            0.210305  0.00205252205858789 8.50374176287582e-07 2.71461189352983e-07 7.36607944940749e-07 1.97734024626026e-07
            0.214676  0.00209506303127677  7.2446453040403e-07 2.61910323833345e-07 7.96511193844471e-07 1.82122952071043e-07
            0.219046  0.00213758691527694 8.08631090250831e-07 2.52719458426314e-07 8.32552816301902e-07 1.68025420846554e-07
            0.223416  0.00218010329175235  9.1630884357169e-07 2.43860368719864e-07 8.44351620313156e-07 1.55265781088653e-07
            0.227785  0.00222260228182847 9.31630991931841e-07 2.35321484131506e-07 8.33251430919759e-07 1.43697035539099e-07
            0.232153  0.00226508373839712 8.90569706951435e-07 2.27097512486025e-07 8.01925825594217e-07 1.33188151779877e-07
             0.23652  0.00230754751440005 4.93228333188896e-07   2.191882219558e-07  7.5395802272815e-07 1.23624621859868e-07
            0.240887  0.00235000318381663 5.95345456463248e-07 2.11594055858565e-07 6.93436927959364e-07 1.14904505149436e-07
            0.245253  0.00239244087487268 6.75179699071636e-07 2.04319463504531e-07 6.24668253318271e-07 1.06941319481174e-07
            0.249618  0.00243486044053831 6.55944952091234e-07 1.97365998662997e-07 5.51844222868165e-07 9.96600284213257e-08
            0.253982  0.00247726173382167 4.42015272770237e-07 1.90750275600602e-07 4.82215110848795e-07 9.32913233449312e-08
            0.258346  0.00251965432091536 5.04134846740093e-07 1.84569519248743e-07 4.39824114234474e-07 8.95650408673949e-08
