0.2264	12.7146
0.2274	12.3204
0.2286	11.9424
0.2296	11.6508
0.2307	11.3916
0.2317	11.1
0.2328	10.8354
0.2339	10.5384
0.2349	10.1874
0.2368	9.6204
0.2378	9.2964
0.239	9.0318
0.24	8.7834
0.2411	8.535
0.2421	8.2758
0.244	7.78656
0.2451	7.51926
0.2461	7.29462
0.2472	7.05918
0.2482	6.83886
0.2499	6.50892
0.2509	6.29886
0.252	6.06612
0.253	5.77884
0.2541	5.54016
0.2552	5.35494
0.2562	5.14866
0.2573	4.89
0.2583	4.60596
0.2595	4.4148
0.2613	4.15236
0.2623	3.93366
0.2634	3.63936
0.2645	3.44415
0.2656	3.359316
0.2666	3.194076
0.2684	3.044226
0.2696	2.956152
0.2706	2.849286
0.2717	2.777358
0.2727	2.831628
0.2743	2.893242
0.2754	2.850906
0.2765	2.861058
0.2775	2.955342
0.2785	3.089046
0.2797	3.133218
0.2807	3.161622
0.2818	3.233334
0.2828	3.338418
0.2839	3.45927
0.285	3.522774
0.2868	3.83052
0.2879	4.02384
0.2889	4.17504
0.2901	4.29492
0.2911	4.44882
0.2921	4.61676
0.294	4.92402
0.2951	5.03796
0.2961	5.16162
0.2972	5.32254
0.2982	5.50776
0.2993	5.6514
0.3009	5.85876
0.302	5.91762
0.303	6.03858
0.3041	6.20814
0.3051	6.36744
0.3062	6.44898
0.3073	6.57156
0.3083	6.6909
0.3094	6.80808
0.3105	6.94902
0.3115	7.0635
0.3134	7.2066
0.3144	7.33458
0.3156	7.44096
0.3166	7.51386
0.3176	7.60998
0.3187	7.64238
0.3206	7.76712
0.3216	7.85244
0.3227	7.95558
0.3237	8.0139
0.3248	8.07924
0.3259	8.18508
0.3275	8.26662
0.3285	8.30712
0.3295	8.37354
0.3306	8.427
0.3317	8.454
0.3328	8.5026
0.3338	8.5512
0.3348	8.616
0.336	8.6214
0.337	8.643
0.3381	8.6916
0.3399	8.7456
0.3409	8.7564
0.3421	8.7672
0.3431	8.7618
0.3442	8.7726
0.3452	8.7888
0.3471	8.751
0.3481	8.7402
0.3492	8.7348
0.3502	8.7132
0.3514	8.7078
0.3524	8.6754
0.354	8.6916
0.355	8.6916
0.356	8.6592
0.3572	8.6214
0.3582	8.6052
0.3593	8.5782
0.3603	8.5242
0.3614	8.481
0.3625	8.4162
0.3635	8.34546
0.3646	8.31036
0.3656	8.24718
0.3675	8.07006
0.3686	7.97394
0.3696	7.91994
0.3706	7.91346
0.3718	7.89456
0.3728	7.8627
0.3746	7.73526
0.3757	7.6629
0.3767	7.58082
0.3779	7.46688
0.3789	7.44798
0.3799	7.38264
0.3815	7.25196
0.3826	7.1769
0.3837	7.11588
0.3847	7.05162
0.3857	6.9636
0.3869	6.86478
0.3879	6.73086
0.389	6.66228
0.39	6.645
0.391	6.5883
0.3921	6.44952
0.3932	6.32478
0.395	6.16872
0.3961	5.99322
0.3972	5.889
0.3982	5.86308
0.3993	5.82042
0.4003	5.6919
0.4014	5.54718
0.4033	5.38248
0.4043	5.28042
0.4053	5.18322
0.4064	5.12544
0.4074	5.07954
0.4086	5.03202
0.4101	4.8846
0.4112	4.72746
0.4122	4.5849
0.4133	4.44828
0.4144	4.34352
0.4154	4.27764
0.4164	4.23876
0.4175	4.20474
0.4186	4.18044
0.4197	4.08
0.4207	3.86292
0.4217	3.67392
0.4236	3.62694
0.4247	3.62208
0.4257	3.58266
0.4268	3.514296
0.4279	3.512514
0.4289	3.474012
0.43	3.20007
0.431	2.658774
0.4329	2.888004
0.4339	2.909442
0.435	2.915814
0.436	2.79588
0.4371	2.8866
0.4381	3.083646
0.4398	3.227502
0.4408	3.026568
0.4418	2.85366
0.4429	2.99136
0.444	3.235386
0.445	3.406998
0.4461	3.470232
0.4471	3.61668
0.4481	3.62694
0.4493	3.67068
0.4503	3.68742
0.4513	3.70848
0.4524	3.81864
0.4543	3.9855
0.4553	4.05138
0.4564	4.20366
0.4574	4.30518
0.4585	4.40778
0.4596	4.54332
0.4606	4.67832
0.4624	4.66806
0.4635	4.71396
0.4646	4.78254
0.4656	4.85814
0.4667	4.95264
0.4677	5.079
0.4688	5.15082
0.4704	5.17134
0.4714	5.14704
0.4725	5.16702
0.4735	5.20482
0.4746	5.33874
0.4757	5.51208
0.4767	5.62818
0.4777	5.60496
0.4788	5.59146
0.4799	5.70108
0.4809	5.77884
0.482	5.83716
0.483	5.88738
0.4849	5.9781
0.486	6.0402
0.487	6.13038
0.488	6.2265
0.4891	6.24432
0.4902	6.22704
0.4912	6.3021
0.4923	6.31344
0.4941	6.29346
0.4952	6.37014
0.4962	6.40794
0.4973	6.44304
0.4983	6.48138
0.4993	6.58992
0.501	6.64338
0.502	6.72816
0.5031	6.81834
0.5041	6.85182
0.5052	6.78162
0.5063	6.70494
0.5073	6.66984
0.5083	6.68496
0.5094	6.7422
0.5105	6.8286
0.5115	6.8934
0.5126	6.97872
0.5136	6.99114
0.5146	6.91932
0.5165	6.90474
0.5176	6.95712
0.5186	7.0068
0.5196	7.01274
0.5208	7.02732
0.5218	7.06566
0.5228	7.06944
0.5239	7.03758
0.5258	7.01922
0.5268	7.04622
0.5279	7.05324
0.5289	7.03812
0.5299	7.04406
0.5311	7.02678
0.5321	7.03542
0.5336	7.03056
0.5347	7.00842
0.5357	6.94092
0.5368	6.88746
0.5379	6.89718
0.5389	6.97224
0.5399	6.96954
0.5411	6.92796
0.5421	6.93714
0.5431	6.94794
0.5442	6.89178
0.5452	6.82698
0.5463	6.8259
0.5474	6.83184
0.5492	6.75084
0.5502	6.70764
0.5513	6.64176
0.5524	6.61746
0.5534	6.62016
0.5544	6.61746
0.5555	6.62718
0.5566	6.65148
0.5576	6.60504
0.5594	6.50784
0.5605	6.45492
0.5616	6.40146
0.5626	6.3642
0.5637	6.37338
0.5647	6.3912
0.5657	6.35772
0.5674	6.3561
0.5684	6.30642
0.5694	6.25674
0.5705	6.23514
0.5716	6.20544
0.5726	6.20976
0.5736	6.19626
0.5747	6.09852
0.5757	6.0483
0.5767	6.00186
0.5779	5.89224
0.5789	5.8107
0.5799	5.74266
0.581	5.79342
0.5821	5.81988
0.5839	5.83662
0.5849	5.78964
0.586	5.73402
0.587	5.68218
0.5881	5.62224
0.5892	5.56176
0.5902	5.60064
0.5912	5.61684
0.5923	5.53368
0.5941	5.44458
0.5952	5.2815
0.5962	5.21886
0.5972	5.24856
0.5984	5.25018
0.5994	5.24154
0.6004	5.01852
0.6015	4.99368
0.6031	5.0169
0.6041	5.06442
0.6052	5.10384
0.6062	5.17998
0.6072	5.00718
0.6084	4.85166
0.6094	4.94724
0.6104	4.96452
0.6114	4.80306
0.6126	4.6659
0.6136	4.72422
0.6146	4.7604
0.6157	4.84572
0.6167	4.78416
0.6178	4.33164
0.6188	3.79326
0.6206	4.3905
0.6217	4.50606
0.6228	4.53306
0.6238	4.64754
0.6249	4.52388
0.6259	4.6092
0.6269	4.60488
0.628	4.4094
0.6291	3.86346
0.6309	4.20312
0.6319	4.26036
0.633	3.97632
0.6341	4.45908
0.6351	4.57896
0.6361	3.9639
0.6371	4.21284
0.6382	4.46448
0.6393	4.33812
0.6408	4.21338
0.6419	4.16802
0.6429	4.25604
0.644	4.3203
0.6451	4.55628
0.6461	4.42398
0.6471	3.7965
0.6482	3.78516
0.6493	3.68688
0.6503	3.80352
0.6513	4.08756
0.6524	4.16964
0.6534	3.8856
0.6545	3.492696
0.6555	3.59076
0.6566	3.461862
0.6576	3.80406
0.6595	3.83106
0.6605	3.61938
0.6615	3.6048
0.6626	3.499932
0.6636	2.805924
0.6647	2.499636
0.6657	2.687502
0.6668	2.594082
0.6678	2.912088
0.6688	3.4428
0.6707	4.12644
0.6718	3.521694
0.6728	3.350406
0.6738	3.273618
0.6749	2.95221
0.676	3.270324
0.677	3.8667
0.678	3.57834
0.6791	3.57888
0.6807	3.51921
0.6817	3.177822
0.6827	2.980614
0.6838	3.157248
0.6849	3.46116
0.6859	2.82018
0.6869	2.82612
0.688	3.45225
0.689	3.95148
0.6901	3.443124
0.6911	2.699544
0.6922	2.44542
0.6932	2.602668
0.6943	3.003888
0.6953	3.56484
0.6964	3.57618
0.6974	3.250452
0.6984	3.089532
0.7003	3.77274
0.7013	3.95256
0.7024	3.79218
0.7034	3.526338
0.7044	3.333612
0.7055	3.6561
0.7066	3.6048
0.7076	3.026082
0.7086	2.558496
0.7097	2.580096
0.7108	2.654346
0.7118	3.198126
0.7136	4.1691
0.7146	3.61344
0.7157	3.193536
0.7167	3.133596
0.7178	3.078786
0.7188	3.516186
0.7198	4.00008
0.7209	4.32786
0.722	4.55142
0.723	4.51686
0.7245	4.42344
0.7257	3.74844
0.7267	3.56376
0.7277	3.231228
0.7287	3.120042
0.7297	4.02168
0.7309	3.81864
0.7319	3.64746
0.7329	3.83916
0.7339	4.67724
0.735	4.44558
0.7361	3.6291
0.7371	3.56376
0.7381	3.384264
0.7392	3.24786
0.7402	2.950914
0.7413	2.686854
0.7423	2.966088
0.7434	3.305964
0.7444	3.365418
0.7463	2.7813
0.7473	2.94978
0.7483	3.6399
0.7493	3.86508
0.7504	3.95094
0.7515	3.82458
0.7525	3.422658
0.7535	3.097632
0.7545	3.026892
0.7556	3.55458
0.7567	3.64854
0.7577	3.60858
0.7595	3.98766
0.7605	3.66474
0.7616	3.76248
0.7627	3.439344
0.7637	3.502578
0.7647	3.77382
0.7657	4.78578
0.7669	3.89424
0.7679	2.789022
0.7689	2.80749
0.7699	3.63558
0.7709	4.55034
0.7726	4.72098
0.7736	4.02384
0.7746	4.50498
0.7756	4.97316
0.7768	3.87048
0.7778	3.046008
0.7788	3.142722
0.7798	3.71334
0.7808	3.90126
0.782	4.34784
0.783	4.37808
0.784	4.0638
0.785	4.87056
0.786	5.3031
0.7872	4.9143
0.7882	4.51794
0.7892	3.75978
0.7902	3.58752
0.7912	4.20798
0.7924	4.30842
0.7934	3.70578
0.7944	2.971056
0.7954	3.088884
0.7973	4.36782
0.7983	3.394038
0.7994	3.092826
0.8004	3.410454
0.8014	4.21932
0.8025	3.675
0.8035	3.65934
0.8046	4.07622
0.8056	4.27764
0.8066	4.35378
0.8077	4.61136
0.8087	4.78956
0.8098	4.15884
0.8108	4.67778
0.8127	4.46016
0.8137	4.51038
0.8147	4.04868
0.8157	4.04274
0.8167	4.68264
0.8178	4.71666
0.8189	3.456462
0.8199	3.245376
0.8209	3.215244
0.8831	3.61668
0.8841	3.03078
0.8852	3.066474
0.8863	4.07676
0.8873	3.356076
0.8883	3.57888
0.8893	4.18908
0.8904	4.7847
0.8914	4.88298
0.8924	3.29484
0.8935	2.652402
0.8951	2.10576
0.8961	3.80352
0.8971	3.68148
0.8981	3.476442
0.8991	3.451116
0.9003	3.423198
0.9013	3.018252
0.9023	3.55188
0.9033	4.01466
0.9043	4.53306
0.9054	4.31976
0.9064	5.04498
0.9075	4.83816
0.9085	3.7128
0.9095	3.359046
0.9106	3.4563
0.9116	3.80028
0.9465	2.748036
0.9475	2.90415
0.9485	3.92124
0.9495	3.77328
0.9506	3.82512
0.9516	3.87588
0.9526	5.08332
0.9536	5.26854
0.9546	4.78146
0.9557	3.64368
0.9568	3.124578
0.9578	2.44596
0.9588	2.44272
0.9598	3.67014
0.9608	4.26522
