# intensity: 1
# background: 0
#           Q (1/A)             dQ (1/A)                    R                   dR               theory              fresnel
 0.00800000272675685 0.000101124744807126    0.965228541376105   0.0235092880179852      1.0000000277427                    1
 0.00900000703758064 0.000113765337563338    0.988632858652499   0.0224668900885624      1.0000000277427                    1
  0.0100000105771785 0.000126405902737435    0.998531194077061   0.0227473515012078      1.0000000277427                    1
  0.0109999903101158 0.000139046147168725    0.995390338635434   0.0233610667078266      1.0000000277427                    1
  0.0119999898714474 0.000151686620444749    0.999411781115518    0.022328036620643      1.0000000277427                    1
  0.0130000097563675 0.000164327326842057     1.00251775793265   0.0224676104513455      1.0000000277427                    1
  0.0140000053597171 0.000176967700549674    0.971401307276819   0.0223603561111362    0.937359711335808    0.951575431000269
  0.0149999987466205  0.00018960801849967    0.251903217446186  0.00568770498852826     0.17499750319152    0.353846912351291
  0.0159999897587612 0.000202248276709458   0.0685842103602939  0.00164161067104774   0.0530159619270942    0.161694792431118
  0.0170000004610092 0.000214888752104735   0.0507797487380322  0.00125881940404291   0.0415503069553407   0.0957463865694201
  0.0180000084717395 0.000227529159791604   0.0462683847356919   0.0011137216633198   0.0409222088084424   0.0634453041367304
   0.018999991409567 0.000240169214882212   0.0450148719945691  0.00106030087617214   0.0412065149888543   0.0447509719017665
  0.0199999935623536  0.00025280947520569   0.0431335951370565  0.00106377768913969   0.0406781294330087   0.0329206952114703
  0.0209999925486501  0.00026544965587261   0.0412840475968407 0.000982694174264724   0.0391394811989551   0.0249803436319147
  0.0219999450716719 0.000278089207624528   0.0377657612789977 0.000882407192516339   0.0367575447003238   0.0194186839602977
  0.0230000235267814 0.000290730307577963   0.0355253613953947 0.000821990061656119   0.0337730450429841   0.0153920797236917
  0.0240001009542269 0.000303371348957447   0.0315403520015735 0.000759897487797387   0.0304185494508258   0.0123997381189307
  0.0249999523552421 0.000316009485798397   0.0277672691446831  0.00063021441701518   0.0269072298723406   0.0101594770622164
  0.0273998919534569 0.000346344552758296   0.0193041132558475 0.000471847485993329   0.0186932261004207  0.00657203613276223
  0.0298000235570934 0.000376681733875351   0.0124398606452218 0.000305458110038873   0.0118310133052533  0.00444598689806725
  0.0321999083755007 0.000407015455534061  0.00764843006481507 0.000194965899061981  0.00688775490884408  0.00312889515971668
  0.0345999860453469 0.000437351247197905  0.00429096359451024 0.000118528786587944   0.0038389658031077  0.00227249922869678
  0.0370000295419044 0.000467686211943497  0.00269389498376777  7.8613791366424e-05  0.00231635377272788  0.00169386268694088
  0.0394000392904103 0.000498020327753553   0.0020133783454217 6.05704986398034e-05  0.00181923519690291  0.00129033991981488
  0.0418000157159853 0.000528353572609073  0.00193048697689285  5.7247161862037e-05  0.00186654505376999    0.001001371652902
  0.0441999487870203 0.000558685792331417  0.00212492049117412  6.0015160964646e-05  0.00208396740693259 0.000789701821654948
  0.0466000663558243 0.000589019839236289  0.00227281066665395 6.14998279274061e-05  0.00223579679107232 0.000631574810358769
  0.0489999218317806 0.000619350041667084  0.00232209967426479 6.17517501901007e-05  0.00221696767312314 0.000511428461202786
  0.0513999469628279 0.000649681828813909   0.0022510556040657 5.95354580824266e-05  0.00202207681938873 0.000418734183781139
   0.053799930430961 0.000680012502548379  0.00197973282213271 5.19461871628948e-05  0.00170568586405292 0.000346253853516504
  0.0562000791582981 0.000710344650449729  0.00164605959952085 4.40245062582643e-05  0.00134455778739606  0.00028888675168226
  0.0585999622713965 0.000740672799916244  0.00124539420808713  3.3607575841647e-05  0.00100900686859236 0.000242991725007512
   0.061000006255187 0.000771002313193055 0.000974113638552744 2.74866067624032e-05 0.000745667970794506 0.000205902706432176
  0.0633999998075331 0.000801330492558125 0.000793227004057119 2.29592675321706e-05 0.000572308780335912 0.000175660977030144
  0.0657999302835783 0.000831657150831241 0.000643432002389088 1.88929695573309e-05 0.000481370747084918 0.000150797690475771
  0.0682000254897884 0.000861985139190848 0.000554770004879403 1.64344478447858e-05 0.000449009827592121 0.000130198303484151
  0.0706000532288257 0.000892311496058526 0.000558586039908263 1.61238196649718e-05 0.000445660872972655 0.000113013002232346
  0.0730000217646159 0.000922636298464745 0.000522461022335064 1.53152677658253e-05 0.000445080418476897 9.85822802040431e-05
  0.0753999184529914 0.000952959359255372 0.000501397816661868 1.44116063796867e-05 0.000430101985859634 8.63911796931324e-05
  0.0777999710745673 0.000983283528967786 0.000480884881031821 1.36492269384442e-05 0.000394527671839762  7.6033003121201e-05
   0.080199947455558  0.00101360584662535 0.000443062591750265   1.259984090636e-05 0.000341703603523858 6.71866424825145e-05
   0.082600070135825  0.00104392909637844 0.000385021678073493 1.12356406750228e-05 0.000280928676553196 5.95934579722899e-05
  0.0849999031364183  0.00107424774265948  0.00033128585314825 9.74454019026537e-06 0.000223171260863279 5.30469103460212e-05
  0.0874000923040921  0.00110456991734625 0.000267251085773639 8.10181173071382e-06  0.00017727310813604 4.73766404933334e-05
  0.0897999874096051  0.00113488737841145 0.000233903531755378 7.21461428797198e-06 0.000147674301457691 4.24465488214843e-05
   0.092200014781595  0.00116520548420043  0.00020137044951974 6.41999599065245e-06  0.00013379675406656 3.81426485339783e-05
  0.0945999579649641   0.0011955214728393 0.000176805440874701 5.68317239684831e-06  0.00013107296100452 3.43719972821476e-05
  0.0970000342270622  0.00122583806130471 0.000170403657856533 5.40757903908279e-06 0.000132931550281418 3.10567856467328e-05
  0.0994000219014012  0.00125615242207532 0.000151981992353736 4.89326953504928e-06 0.000133043359498926 2.81326974732124e-05
    0.10179991879613  0.00128646450007762 0.000138465265897279 4.51514637403568e-06 0.000127124713017586 2.55455364114325e-05
   0.104199942153036  0.00131677701165505 0.000128266902918548 4.19571505588809e-06 0.000113840949119734 2.32496271618014e-05
    0.10660008975403  0.00134708990108092 0.000105512312459888  3.5825015021136e-06 9.47113462981483e-05 2.12062097513969e-05
   0.108999930996778  0.00137739770262692 8.66523165613722e-05 3.08131880134445e-06 7.31575872405161e-05 1.93830355825806e-05
   0.111400101038637  0.00140770841019057 6.71169000652739e-05 2.57767316735659e-06 5.31452609957187e-05 1.77517549067806e-05
   0.113799949888544  0.00143801378776625 5.29090754763045e-05 2.18933926839657e-06 3.78943666021059e-05 1.62889823656776e-05
   0.116199914157253  0.00146831932150246 4.32626270400027e-05 1.90518325737734e-06 2.89870046824807e-05 1.49739888427188e-05
   0.118599991622915  0.00149862495559595 3.90328811486314e-05 1.76007975774276e-06  2.6136285393855e-05 1.37891919857236e-05
   0.120999960694855  0.00152892786446332 3.42919360511465e-05 1.60992555271351e-06 2.75406070395353e-05 1.27195007630101e-05
   0.123400038537144  0.00155923076252295  3.5289108933793e-05  1.5982358480198e-06  3.0640408794019e-05 1.17516492884751e-05
   0.125800003578119  0.00158953082467736 3.29816681468023e-05 1.50273109739034e-06 3.29783748470624e-05 1.08742855950521e-05
   0.128200072960432  0.00161983076481451 3.33045391609042e-05 1.47961639254018e-06 3.28867691983193e-05  1.0077361525718e-05
   0.130600025132245  0.00165012775834353 2.53838771601145e-05 1.26505370548705e-06 2.98219977332526e-05 9.35224209863783e-06
    0.13300006677044  0.00168042438677267 2.25716893372036e-05 1.17076835395038e-06 2.43083721348531e-05 8.69123664104448e-06
    0.13539999723146   0.0017107180897111 1.53128380992905e-05 9.65757748465131e-07 1.75781511629805e-05 8.08770296295567e-06
   0.137800023168651  0.00174101144808414 9.98338597603904e-06  8.1069297646961e-07 1.10680190324372e-05 7.53569438508213e-06
   0.140199923072258  0.00177130163837629 7.39190476689732e-06 7.24220636712748e-07 5.95490674792245e-06 7.03006145475052e-06
     0.1425999140159   0.0018015913727663  4.6496612174913e-06 6.36179359867534e-07 2.85572619939237e-06 6.56616037044432e-06
   0.144999993768662  0.00183188059526975 4.30321220311254e-06 6.09697406168398e-07 1.75557603569582e-06 6.13992214930345e-06
   0.147399940854184  0.00186216648322454 3.57372115070691e-06 5.76044493060006e-07 2.13560880544315e-06 5.74776838063793e-06
   0.149799961868961   0.0018924516161502 4.25846418874277e-06  5.7637905975281e-07 3.22526719103208e-06 5.38644630697073e-06
    0.15220007545926  0.00192273620148649 3.05503770387185e-06 5.31912289079581e-07 4.27767619069633e-06 5.05308750136943e-06
   0.154600049743736  0.00195301728572583 3.50541831547691e-06 5.27574541612304e-07 4.77996163498777e-06 4.74518664957823e-06
   0.157000101719201   0.0019832975791455 3.51592345139278e-06 5.13428279466041e-07 4.55228438667673e-06 4.46037629103866e-06
   0.159399999532068  0.00201357412894563 1.87021893535823e-06 4.62691112241936e-07 3.71981983738354e-06 4.19665069379513e-06
   0.161799981027094  0.00204384990808895 1.78522724481112e-06  4.4770163272387e-07 2.60033274396444e-06 3.95213870319872e-06
    0.16420003352875  0.00207412472877506  1.0396591435069e-06 4.19616691920578e-07 1.55339837230803e-06 3.72518487712329e-06
   0.166599935658877  0.00210439577085057 6.24730808058958e-07 3.99019971791085e-07 8.47343995677064e-07 3.51431564425416e-06
   0.168999893910456    0.002134665611275 7.98647105169882e-08 3.76354324359606e-07 5.82591986007311e-07 3.31816452530428e-06
   0.171399926912891  0.00216493445710661 7.81273589268349e-07 3.80895328790012e-07 6.87043043433575e-07 3.13551369341144e-06
   0.173800011556384  0.00219520198897091 8.58950674415741e-07 3.71402353736506e-07 9.72279051974294e-07 2.96526432242401e-06
   0.176199947383501  0.00222546565124066 9.87760293820562e-07 3.64508212609765e-07 1.22258691997619e-06 2.80643188274998e-06
   0.178599940828514  0.00225572801942299 8.74735643588883e-07 3.54077106252542e-07 1.28146518857657e-06 2.65809655784567e-06
   0.180999979216371  0.00228598890576907  1.0771160291041e-06 3.49912577204731e-07 1.10526181131722e-06 2.51943702376974e-06
   0.183400081164845  0.00231624851707404 1.03546817676328e-06 3.42472273847113e-07  7.6883022519751e-07 2.38970431098097e-06
   0.185800014974631  0.00234650390447659 5.09277511338257e-07 3.27476891306227e-07 4.25879923314122e-07  2.2682286450298e-06
    0.18819998702243  0.00237675764206153 2.06373378110218e-07 3.16572645707458e-07 2.42283221951166e-07 2.15437720057201e-06
   0.190600015919075  0.00240700993646809 2.72640355935566e-07  3.1311584932702e-07  3.2917896502523e-07 2.04758179388951e-06
   0.193000078558982  0.00243726046847583 2.25868623703512e-07 3.06607392915951e-07 7.00025978305758e-07  1.9473248152983e-06
   0.195399964163687  0.00246750655375488 4.42554720865728e-07 3.04170806344699e-07 1.26586681789813e-06 1.85313954271034e-06
   0.197799899898759  0.00249775102760659 7.10248361672242e-07 3.02344022069231e-07 1.86851110670142e-06 1.76458142010595e-06
   0.200200071160221   0.0025279961981385 1.52400811325193e-06 3.09528732562792e-07 2.33703431440992e-06 1.68124537316183e-06
   0.202600079531468  0.00255823701679697  1.6989166757291e-06  3.0538767688167e-07 2.54627795408138e-06 1.60277889827098e-06
   0.204999901958256  0.00258847316568386  2.1350465101785e-06 3.05747643400266e-07 2.45658823355996e-06 1.52885219373879e-06
    0.20739995313961  0.00261870984174162  1.5676289227382e-06 2.89536720988109e-07 2.12322527841892e-06 1.45912874227496e-06
   0.209800064026049  0.00264894488686212 1.23255725548755e-06 2.77605503874559e-07 1.67052390395904e-06 1.39333530967631e-06
   0.212199961411148  0.00267917483164706 3.82258509228348e-07 2.58186261663218e-07 1.24801170443552e-06 1.33121584525837e-06
   0.214600101576816  0.00270940539557251 3.12693432736217e-07 2.51687483101668e-07 9.80364698158872e-07 1.27251575469346e-06
   0.217000044606532  0.00273963100969753 5.92924440433768e-07 2.50275488557979e-07 9.30779131841467e-07 1.21702160994134e-06
   0.219400225863572  0.00276985712906262 2.59066228755013e-07 2.40096790590733e-07 1.08742219901526e-06 1.16451608043037e-06
   0.221799122091663  0.00280006454454788 6.74367448016346e-07 2.40773451360789e-07 1.37517164744971e-06 1.11483889269578e-06
   0.224199981315337  0.00283029412687972 1.02956094289513e-06  2.3977294959834e-07 1.68655227856295e-06 1.06774626815099e-06
    0.22660065515445  0.00286051879459436 1.14064002950767e-06  2.3583117251352e-07 1.91696953972392e-06 1.02311845945673e-06
   0.228998912648436  0.00289071043590277 1.79617064208936e-06 2.40643144678011e-07 1.99638200016083e-06 9.80840459773688e-07
   0.231399167619377  0.00292092458900203 1.49952109527571e-06 2.31507528588436e-07 1.90540825061378e-06 9.40692216957328e-07
   0.233799188923428   0.0029511331375179 1.47207188076358e-06 2.27156239034891e-07 1.67394408355846e-06 9.02581706096287e-07
   0.236199016006342  0.00298133655057206 1.53474502803437e-06 2.24475029965779e-07 1.36668535011858e-06 8.66385307429681e-07
   0.238600791315681  0.00301156176119573 8.65191210174684e-07 2.11616845652333e-07 1.06042978636163e-06 8.31958735900991e-07
    0.24100018148024  0.00304175420857553 6.71740128959444e-07 2.05960375851206e-07 8.22877336829009e-07 7.99352262812401e-07
   0.243399329154478  0.00307194083095183 5.21568624277679e-07 2.00690708787719e-07 6.92467168376748e-07 7.69077426474232e-07
   0.245800438649019  0.00310214933231969 3.85403768697977e-07 1.95723713036069e-07  6.6449888480263e-07 7.43081135572567e-07
   0.248199156973848  0.00313232492006218 1.54079242441623e-07 1.89889731893904e-07 6.94832940358601e-07 7.23722814922174e-07
   0.250599811471819  0.00316252200425249  1.1190167464669e-07 1.86346196166262e-07 7.38536945430275e-07 7.11013636575504e-07
