# intensity: 1
# background: 0
#           Q (1/A)             dQ (1/A)                    R                   dR               theory              fresnel
          0.00877296 8.57369676736154e-05   0.0196846713476239 0.000483080320729333   0.0200248567576825   0.0173211125048115
           0.0100889 9.85973994514066e-05   0.0137560495179071 0.000347091702160742    0.013707661064169   0.0111456402185393
           0.0114048 0.000111457409223373  0.00942887754945663 0.000255772684712052  0.00953928605827001  0.00743533399956236
           0.0127208 0.000124318361121249  0.00717353034416259 0.000194406890963107  0.00687692113319972  0.00511999111945294
           0.0140367 0.000137178296537108  0.00519913224091825 0.000151704516124982  0.00511475456584665  0.00362543997518884
           0.0153526 0.000150038188692536  0.00385834402450105 0.000121081298474864  0.00391025025289747   0.0026308898425855
           0.0166685 0.000162898033531676  0.00297311120596765 9.85427444245649e-05  0.00306293499470638   0.0019509160034543
           0.0179845 0.000175758804258743  0.00244063766453164 8.15722993706737e-05  0.00245132728030095  0.00147463048467138
           0.0193004 0.000188618542293017  0.00205669014710757 6.85383763107536e-05  0.00199963834687894  0.00113379311335596
           0.0206163 0.000201478220842578  0.00154751717392894   5.834769029333e-05   0.0016590488957447 0.000885097609747992
           0.0219322 0.000214337835851184  0.00147180172676982 5.02691357924511e-05  0.00139833715909981  0.00070044855552961
           0.0241253 0.000235769723821315   0.0010148635719938  4.0096993816195e-05  0.00108260653336225 0.000487123576856464
           0.0263185   0.0002572023824813 0.000871902569626388 3.27352906319866e-05 0.000863717184332924 0.000348744962744473
           0.0285116 0.000278633838586312  0.00069405915043573 2.72625049963237e-05 0.000707292564376798 0.000255974076994485
           0.0307047 0.000300065050592837 0.000615699870165459 2.30876413437066e-05 0.000592005651521627 0.000191974410790981
           0.0328977 0.000321495022526369 0.000487687588800564 1.98308156863443e-05 0.000504725568555708 0.000146712905889632
           0.0350908 0.000342925690002228 0.000452380345430577 1.72394187753506e-05 0.000437058275372037 0.000113993544775817
           0.0372838 0.000364355079865535 0.000383726903848511 1.51415303254013e-05 0.000383485516070592 8.98818043818664e-05
           0.0394768 0.000385784150525367 0.000342889586866487 1.34166898192969e-05 0.000340262580035834 7.18041669105907e-05
           0.0416698 0.000407212883196571 0.000326821590251272 1.19789344848098e-05 0.000304792649781538 5.80402984395962e-05
           0.0438627 0.000428640281974596 0.000272384596719051 1.07672836876584e-05 0.000275321026339643  4.7414998860053e-05
           0.0473713 0.000462922940267723 0.000240875001619419 9.18299954398413e-06 0.000237205601904836 3.49891271812952e-05
           0.0508798 0.000497203583214105 0.000205928859754861 7.92241811879972e-06  0.00020706027006116 2.63739136613953e-05
           0.0543882 0.000531482133943782 0.000176398446323524 6.89985616586309e-06  0.00018262800234352 2.02510076773951e-05
           0.0578966 0.000565759492576199 0.000157034330150808 6.05557143615321e-06 0.000162338900051866 1.58040532132649e-05
           0.0614048  0.00060003362821969 0.000145973478149877 5.34802437736829e-06 0.000145133662485797 1.25122519454135e-05
           0.0649128 0.000634304464109654 0.000130949390279401 4.74751279825083e-06 0.000130278088059691 1.00338518847057e-05
           0.0684208 0.000668573877234887 0.000118163767681087 4.23228772980962e-06 0.000117252918354348 8.13925741564655e-06
           0.0719286 0.000702839836928123 9.88185731174992e-05 3.78621960017018e-06 0.000105686463735162 6.67116066512422e-06
           0.0754363  0.00073710324321804 9.26014734776416e-05 3.39703719484035e-06 9.53069197796131e-05 5.51941405217554e-06
           0.0789438 0.000771363042478343 8.60055133238034e-05 3.05526859730219e-06 8.59143354111885e-05 4.60570652723698e-06
           0.0824512 0.000805620134643632 7.71226496112668e-05 2.75349380433928e-06 7.73591820622087e-05  3.8733817667557e-06
           0.0859585 0.000839874442811113 7.23623003812629e-05 2.48562533876574e-06 6.95153806867167e-05 3.28092081394656e-06
            0.087712 0.000856999430181491 6.54307816483327e-05 2.36306265278951e-06 6.58443733001173e-05 3.02718768657862e-06
            0.091219 0.000891247953378265 5.78844435360592e-05 2.13816415930905e-06 5.89633601550115e-05 2.58917712627713e-06
           0.0947258 0.000925492523961103 5.32920994967959e-05 1.93691080337009e-06  5.2615513120464e-05  2.2275769015709e-06
           0.0982324 0.000959733065178519 4.83022497702135e-05 1.75661240258536e-06  4.6770319467106e-05 1.92694080776084e-06
            0.101739  0.00099397145301271 4.10023764886161e-05 1.59483940226364e-06 4.13915417270858e-05 1.67533127465635e-06
            0.105245  0.00102820175250849 3.92430777106936e-05  1.4495777394095e-06 3.64509033077106e-05 1.46349689548373e-06
            0.108751  0.00106242974511247 3.26986820660182e-05 1.31905909775378e-06 3.19230588334314e-05  1.2840970013203e-06
            0.112257   0.0010966553536645 2.73552069550182e-05 1.20179236614766e-06 2.77868645374678e-05 1.13135280720466e-06
            0.115762   0.0011308687400236 2.25526315270761e-05 1.09651029719038e-06 2.40243676396686e-05 1.00068592384385e-06
            0.119268  0.00116508934960268  2.0752199375463e-05 1.00202160818207e-06 2.06157395786142e-05 8.88314402380167e-07
            0.122773  0.00119929758402514  1.5888930226409e-05  9.1737784354314e-07 1.75459305079683e-05 7.91303431250423e-07
            0.126278  0.00123350312701843 1.48152107295476e-05 8.41655671826114e-07 1.47971759486794e-05 7.07177226089805e-07
            0.129782  0.00126769614344653 1.23576467157879e-05 7.74070678835756e-07 1.23533090128842e-05 6.33955763269342e-07
            0.133287   0.0013018960725967 1.01918840975257e-05 7.13846116397979e-07 1.01958340828657e-05 5.69950801016598e-07
            0.136791  0.00133608332224885  8.3048635531877e-06 6.60339901960813e-07 8.30851058197968e-06 5.13836233075052e-07
            0.140295  0.00137026757298047 7.22538936013126e-06 6.12903155521813e-07 6.67282728415638e-06 4.64459055234754e-07
            0.143798  0.00140443899299659 6.05356786885017e-06 5.70954657368438e-07 5.27092664958866e-06 4.20883371566095e-07
            0.147302  0.00143861701473919 2.41143100746971e-06  5.3391155664103e-07 4.08349091289655e-06 3.82288756345248e-07
            0.150805  0.00147278205283279 3.09147678923616e-06 5.01233416305788e-07  3.0898526648399e-06 3.48026590258873e-07
            0.153432  0.00149840122771363  3.2564071513221e-06  4.7936079112118e-07  2.4669253286839e-06 3.24822705521479e-07
             0.15781  0.00154109238113463  1.9069430007108e-06 4.47234116721274e-07 1.63031912085712e-06 2.90286091530213e-07
            0.162187   0.0015837683784041 6.04316737057987e-07 4.19685543398602e-07 1.00711222577933e-06 2.60225562819143e-07
            0.166564  0.00162643882017072 1.07566744694661e-06 3.95999226946481e-07 5.69152859422531e-07 2.33956703043002e-07
            0.170941  0.00166910355507407 -2.62612099087412e-07 3.75477643802087e-07  2.8375533610865e-07 2.10919901078068e-07
            0.175317  0.00171175268617424 -1.14142764099022e-07   3.575181948514e-07 1.20417137546895e-07 1.90653908135863e-07
            0.179693  0.00175439581012229 -1.8922723771846e-07 3.41601238060745e-07 5.11116043699119e-08 1.72764169135557e-07
            0.184068  0.00179702303265721 2.47938479692351e-07 3.27303300667544e-07  5.0762582742889e-08 1.56927495102224e-07
            0.188442  0.00183963420642077 1.49448292406724e-07 3.14278578633573e-07 9.73796154746643e-08 1.42867340747374e-07
            0.192816  0.00188223892383246 3.76097912938623e-07 3.02251682607784e-07 1.72239552815642e-07 1.30346971880332e-07
            0.197189  0.00192482729493714 -9.84456522132689e-08 2.91015900636371e-07 2.59855249192079e-07 1.19170835601691e-07
            0.201562   0.0019674089091114 3.39931768379482e-07 2.80411945927559e-07 3.47968038191976e-07 1.09167111094159e-07
            0.205934  0.00200997387939359 5.36984809816914e-07 2.70328573398069e-07 4.27317939059547e-07 1.00193220817113e-07
            0.210305  0.00205252205858789 5.66800847573476e-07 2.60686121172359e-07 4.91478698414606e-07 9.21244225860122e-08
            0.214676  0.00209506303127677 3.99074678816132e-07 2.51429281880376e-07  5.3655600040277e-07 8.48516788857948e-08
            0.219046  0.00213758691527694 3.40110674656768e-07 2.42526812189169e-07 5.60817121801236e-07 7.82840154879476e-08
            0.223416  0.00218010329175235 3.07284807831016e-07 2.33957463777265e-07 5.64369413716606e-07 7.23396056846324e-08
            0.227785  0.00222260228182847 8.82635313081568e-07  2.2571363603698e-07 5.48763229547264e-07 6.69499851969053e-08
            0.232153  0.00226508373839712 5.40600950703803e-07 2.17791675158737e-07 5.16631191942605e-07 6.20541059046434e-08
             0.23652  0.00230754751440005 2.56458944344428e-07 2.10191063042262e-07  4.7132375857801e-07 5.75986189980436e-08
            0.240887  0.00235000318381663   6.425432942636e-07  2.0291067263203e-07 4.16564630295177e-07 5.35358960782472e-08
            0.245253  0.00239244087487268 3.95851702961668e-07 1.95952282155426e-07 3.56208881208598e-07 4.98259278202825e-08
            0.249618  0.00243486044053831 2.87759670535303e-07 1.89314330277187e-07 2.93966207641199e-07  4.6432551798976e-08
            0.253982  0.00247726173382167 2.58438234582149e-07 1.83007050568889e-07 2.35954114236789e-07 4.33238600519851e-08
            0.258346  0.00251965432091536 7.29854138612756e-08 1.77104042827692e-07 2.01318955800427e-07 4.04710099852811e-08
