# intensity: 1.00426320726487
# background: 5.28253277105336e-06
#           Q (1/A)             dQ (1/A)                    R                   dR               theory              fresnel
 0.00820205148389361  0.00010438230102561        0.08634541668      0.0025603588041   0.0667006554817266    0.936876531071954
 0.00871088165677612 0.000110359065725117       0.078215381966      0.0022733926929   0.0599509452682023    0.596690574733408
 0.00921096661061628 0.000116743907707764       0.067198582951      0.0019551173426   0.0530500747898979    0.259385004694605
 0.00970222171658259 0.000122498722092953       0.057016468461      0.0016853631724   0.0472109007316259    0.145188350407378
  0.0102110507768732 0.000129042423496767       0.053185987312      0.0015667129286   0.0419841902065426   0.0949293135129688
  0.0107198794186196 0.000134865468653828       0.045745232306      0.0013463079996    0.037454800470846   0.0668118478025547
   0.011215547147341 0.000141311990767806        0.04103340377       0.001206680152   0.0336111784842077   0.0496421206896733
  0.0117113200274459 0.000146945689074465       0.037154673432      0.0010998497533   0.0302422605280552   0.0380741545457039
  0.0122156167822451 0.000153503190112318       0.032270905417     0.00097309436628   0.0272305601152967   0.0297951587255753
  0.0127113242950354 0.000159278201005744       0.030285189317     0.00090650166674   0.0246188899662049   0.0238665031569604
  0.0132114122772838 0.000165819353395158       0.025438059025     0.00077406277334   0.0222859041930804   0.0193884728509518
  0.0137070801861816 0.000171563574059815       0.022903244334     0.00070206965243   0.0202313654549755   0.0159902290563625
  0.0142158526476089 0.000177982110690102       0.020941659098     0.00065024718286    0.018353494529836   0.0132761038261747
   0.014711583654941 0.000184101045177143       0.018923064357     0.00058677749577   0.0167191491280592   0.0111851620226564
  0.0152115858864033 0.000190080895434326       0.017116211755     0.00053627643673   0.0152418630603801   0.0094934606592852
  0.0157160189243919 0.000196451525651759       0.014995975081     0.00047853100972   0.0139034844638999  0.00810970721762137
  0.0162160494407675  0.00020261839016758       0.013594950787     0.00044308578965   0.0127091098626792  0.00698585998757014
  0.0167117039986233 0.000208659871733043       0.011717633535      0.0003884343628   0.0116401523040977  0.00606356740316966
  0.0172117839158177 0.000214748945572528       0.010774921178     0.00035865186268    0.010664307980494  0.00528677928029574
  0.0177162061630188 0.000221088393881738      0.0092130099407     0.00031625463242  0.00977246217973677  0.00462849178390278
  0.0182162872096174 0.000226882876713154      0.0084656119626        0.00029637975  0.00896981411376521   0.0040763612534078
  0.0187119246990401 0.000233623100549208      0.0079025954064     0.00027500091971  0.00824602912392914  0.00361008968090287
  0.0192075618446388  0.00023918293707735      0.0066232577143     0.00024027758882  0.00758617633278857  0.00321021639214105
  0.0197164013940515 0.000245756867543149      0.0055237733036     0.00020993861571  0.00696829055342881  0.00285686597424924
  0.0202120039763631 0.000251348207627551      0.0054402937032     0.00020593417691   0.0064185412975827  0.00255909865505178
  0.0207121041255847 0.000258043019595163      0.0047720724049     0.00018338624356  0.00591104684615687  0.00229785032854869
  0.0212165489323855 0.000263855129446577      0.0044608946297     0.00017346783299  0.00544231472114231  0.00206782604563734
  0.0217122236791733  0.00027022237154478      0.0038168089913     0.00015455221931  0.00502009424044932  0.00186970606981676
  0.0222034557335447 0.000276138146558625      0.0036496240859     0.00014836852877  0.00463565619438849  0.00169667248985415
  0.0227166558061602 0.000282356736805572      0.0032358856595     0.00013491181313  0.00426694435980394  0.00153714494094174
  0.0232167110649581 0.000288338135133134      0.0029806203116      0.0001258452882  0.00393696439618643  0.00139958334590169
  0.0237123450028417 0.000294828921551082      0.0026520305918     0.00011543051078  0.00363608298411011  0.00127838742299828
  0.0242079668420031 0.000301009806337058       0.002317720565     0.00010478196393  0.00335900774813159  0.00117027796558289
  0.0247168336632233  0.00030702560701337      0.0020803476792     9.6457021844e-05  0.00309749011302974  0.00107126671241714
  0.0252123982841378 0.000313330139442202      0.0018726666643     6.7888537125e-05  0.00286941853025706 0.000987750289726088
  0.0276248912368817 0.000342429732876965      0.0010955754341     5.9930732947e-05    0.001965906164758 0.000675303439953851
  0.0300109023633663 0.000372384382086443     0.00068822669374     4.2705738675e-05  0.00135184897183909 0.000478184986402975
  0.0324145658173798 0.000401418279652719     0.00038205590059     2.9175002901e-05 0.000931101218132644 0.000348158931106347
  0.0348181494629425 0.000431254981237895     0.00027428802073     2.2979616402e-05  0.00064643733564919 0.000260117383643562
  0.0372129653275483 0.000460685773060522     0.00020992013224     1.8887831883e-05 0.000455668382945935 0.000198914896570832
  0.0396120871393085 0.000490101991461316     0.00017878291946     1.6428758375e-05 0.000327932677414093 0.000155037153943622
  0.0420024080017519 0.000519451919152618     0.00015320563905     1.4346369893e-05 0.000243139625233828 0.000123057671828984
  0.0444058485530998 0.000549099564695667      0.0001279583107     1.2505359819e-05 0.000186100630742281 9.90932056020348e-05
  0.0468180240122832 0.000578749730483904     0.00011568876015     1.1358271362e-05 0.000147123182248754 8.08828931675728e-05
  0.0492082311584675 0.000607942310529566     0.00011474864321     1.0648769035e-05 0.000119763836870738 6.70073748287641e-05
  0.0516159055076286 0.000637788522179282     0.00011554320753     1.0195096521e-05 9.90721540626976e-05 5.61134215475575e-05
  0.0540148209603711 0.000666828492195747     0.00010620211611     9.4326468746e-06 8.25388063181614e-05 4.75522563300978e-05
  0.0564136336322152  0.00069679129203388      9.531035598e-05      8.564990304e-06 6.85112831989391e-05 4.07245649722253e-05
  0.0588211977457095 0.000725863232511299     8.9509450134e-05     7.8026974421e-06 5.61666428352988e-05 3.52056174512271e-05
  0.0612155202902575 0.000755466743445745     8.0686262219e-05      7.083153203e-06 4.53330658633639e-05  3.0744393427382e-05
  0.0636186049151374  0.00078547316504546     6.3396182875e-05     6.2113913319e-06 3.59001031451432e-05 2.70740706961598e-05
  0.0660259633885315 0.000814509497872379     5.8864371009e-05     5.7986854315e-06   2.799992668667e-05 2.40375224371449e-05
  0.0684113771618679 0.000844073474786784     4.3237449192e-05     4.9048918192e-06 2.18100626807521e-05 2.15337773598167e-05
   0.070809854896525 0.000873441282626037     3.9069999344e-05     4.5737667037e-06 1.72748986672719e-05 1.94246441847125e-05
  0.0732214237621339 0.000903136307848323     2.2886647423e-05     3.8596939509e-06 1.43674471340547e-05 1.76381546751533e-05
   0.075615403225989 0.000932298518575206     1.3195364229e-05     3.4554812735e-06 1.29696185342099e-05 1.61354754406709e-05
  0.0780180551181276  0.00096210871657743     9.8278785225e-06     3.0793513575e-06 1.28207405319032e-05 1.48505281193523e-05
  0.0804119233093061 0.000991082543869025     1.0560895404e-05     2.9954863678e-06 1.36234875931412e-05 1.37540958084581e-05
  0.0828056699694363   0.0010208538615104     7.3038198838e-06     2.8528466054e-06 1.50504672567961e-05 1.28105980109492e-05
  0.0852037413408711  0.00105042510054479     1.4364990167e-05     3.1560665228e-06 1.67809235689869e-05 1.19936386322221e-05
  0.0876061187055303  0.00107967310581387     1.4718536491e-05     2.9334544451e-06  1.8520341492114e-05 1.12834543023855e-05
  0.0900084159299215   0.0011096261767477     1.9323223131e-05     2.9052022651e-06 2.00206877235686e-05 1.06648670774841e-05
  0.0924062585659362  0.00113845251915503     2.1829020468e-05     2.9021092799e-06 2.11011768100128e-05 1.01249699482608e-05
  0.0948083878516976  0.00116821609924859     2.6387221727e-05     3.0360404597e-06 2.16580265218922e-05  9.6503849534276e-06
  0.0972104251674026  0.00119763909201038     2.3026477941e-05     2.7917344254e-06 2.16510332873891e-05 9.23259720133901e-06
  0.0996167364447764  0.00122723039189339     2.1048831586e-05     2.5876682965e-06 2.11024371803234e-05  8.8630000007161e-06
   0.102014229494859  0.00125641591776916     2.3654959422e-05     2.5986886124e-06 2.00889829043723e-05 8.53678588385257e-06
   0.104411627922562  0.00128578302563578     2.3102232492e-05     2.6184681121e-06  1.8714697826983e-05  8.2469403782191e-06
   0.106813291029146  0.00131553330536459     1.7625805761e-05     2.3633800802e-06 1.70993046880251e-05 7.98827022748433e-06
   0.109219257231811  0.00134496021794952     1.0241285549e-05     2.0652306614e-06 1.53677352702535e-05 7.75681238565256e-06
    0.11161634583636  0.00137468763583108     1.0472926816e-05     2.0314368881e-06 1.36449350003327e-05 7.55032528978473e-06
   0.114022102582498  0.00140370934112656     3.7705378133e-06     1.9123760282e-06 1.20141731780125e-05 7.36430909787983e-06
   0.116414607193804  0.00143352070210812     4.2119788252e-06     1.8708917025e-06 1.05602754329788e-05 7.19787045172699e-06
    0.11882014632662  0.00146242903957059     4.7772262071e-06      1.768246704e-06 9.31022416181515e-06 7.04697082692584e-06
   0.121221202179651  0.00149219212668442     4.1814711059e-06     1.7010251012e-06 8.29105956264999e-06 6.91088792096018e-06
   0.123613367794328   0.0015217023574924     4.2081155122e-06     1.7154951149e-06 7.49733216071041e-06 6.78811911540322e-06
   0.126014224633536  0.00155069143015214     3.8468795144e-06      1.706304384e-06 6.90059608006431e-06 6.67632691541243e-06
   0.128414932633956  0.00158053682856443     5.5460512043e-06     1.6199560741e-06 6.47074440711655e-06 6.57473159558126e-06
   0.130815494719198  0.00160976451206672     3.5808722144e-06     1.5352031033e-06  6.1697958760007e-06 6.48223436002306e-06
   0.133216001472855  0.00163941891981441     5.7496188851e-06     1.5860647056e-06 5.96073882680266e-06 6.39787248021383e-06
   0.135607608418173   0.0016684518874267     4.1068299123e-06     1.5922163377e-06 5.81216228725134e-06 6.32107504232508e-06
   0.138016593586522  0.00169822558494892      9.052515487e-06     1.5538679064e-06 5.69862623679906e-06 6.25029015373089e-06
   0.140412317378063  0.00172714614270347     3.7787917517e-06     1.4144475575e-06 5.60656203062967e-06 6.18577553437425e-06
   0.142812304445484  0.00175687788528647     6.3656889147e-06     1.4530216804e-06 5.52871228077643e-06 6.12645234973036e-06
     0.1452121595566  0.00178602307700287     6.6277728644e-06     1.5094158441e-06 5.46586765141765e-06 6.07192436016157e-06
    0.14762062120105  0.00181541376831048     5.1434651907e-06     1.3695784218e-06 5.42337475515429e-06 6.02155779398664e-06
   0.150007066845112  0.00184541945432566     5.5380980098e-06     1.3069808689e-06 5.40929061355227e-06 5.97555448183542e-06
   0.152410878767865  0.00187438607916725     5.5605317465e-06     1.2933826518e-06 5.43068785850528e-06 5.93278005219186e-06
   0.154805804992282  0.00190405028835297     8.7320219425e-06      1.368346308e-06 5.49249599665629e-06 5.89339662948588e-06
   0.157204967963337  0.00193320649372664     5.2535267711e-06     1.2564950505e-06 5.59599390852816e-06  5.8568895321035e-06
   0.159603987126534   0.0019626957547253     6.5245919049e-06     1.2235943709e-06 5.73758077886858e-06 5.82307463787025e-06
   0.162002869215923  0.00199181285014829     5.2701707875e-06     1.2142834813e-06 5.90906072200926e-06 5.79171207237757e-06
   0.164397205429937  0.00202127603767473     2.5255939125e-06     1.2354818678e-06 6.09822988641095e-06 5.76264612915518e-06
   0.166804537711458  0.00205051111815701     4.4740396715e-06     1.2145684228e-06  6.2921328557486e-06 5.73548395662114e-06
   0.169211717960642  0.00208014036328943     1.9674937532e-06     1.1161639995e-06  6.4743692006271e-06 5.71021739633813e-06
   0.171609976923401  0.00210963841473645     4.7382052799e-06     1.1196367763e-06 6.62984510580069e-06 5.68677281237758e-06
   0.174012455586599  0.00213862852880781     4.4456835275e-06     1.1340583214e-06 6.74733196444983e-06 5.66487602164842e-06
   0.176406035490113  0.00216855971890614     6.0693024405e-06     1.1247407892e-06 6.81766563980901e-06 5.64451625299445e-06
   0.178812569184856  0.00219731257214594     7.3154119856e-06     1.0720275246e-06 6.83700661759161e-06 5.62539407193805e-06
   0.181214570558963  0.00222717715311838     5.1053719673e-06     1.0258240586e-06 6.80495960952935e-06 5.60755107661311e-06
   0.183612029138288  0.00225622311899029     5.7134866976e-06      1.053128738e-06 6.72604797059768e-06 5.59088420522667e-06
   0.185996196846867  0.00228545746355084     7.5706810741e-06     1.0742755796e-06 6.60861321777503e-06 5.57535662230025e-06
   0.188402070721554  0.00231492620879724     6.6508701168e-06     9.9718909703e-07  6.4608378077147e-06 5.56066628771127e-06
   0.190794628773468  0.00234415466731743     7.6518170557e-06     9.7847467822e-07 6.29604404002452e-06 5.54695968116939e-06
   0.193204525109271  0.00237363082553912     7.1758317623e-06     9.8290280641e-07 6.12359699343505e-06 5.53399686459825e-06
   0.195601114635285  0.00240271317818936     7.2546848619e-06     1.0039586762e-06 5.95614063846535e-06 5.52188388511285e-06
   0.197997526963333  0.00243231102245509      6.761991461e-06     9.3429785155e-07 5.80134563337048e-06 5.51049271025751e-06
   0.200398149467437  0.00246118618377742     6.6039515386e-06     9.0572936565e-07 5.66520243695196e-06 5.49975296713226e-06
   0.202802937664942  0.00249102193057838     5.6098266576e-06     9.0331526218e-07  5.5514945756685e-06 5.48962153350669e-06
   0.205203162843419  0.00251988641934041      4.067034538e-06     9.3381204702e-07 5.46176449823866e-06 5.48009136115014e-06
   0.207598847982276  0.00254924843383093     4.4327535834e-06     8.6681747877e-07 5.39488669628546e-06 5.47111989894787e-06
   0.210003071379837  0.00257888433261119     3.7242591719e-06     8.2552113387e-07 5.34790727070806e-06 5.46262283570821e-06
   0.212398372871519  0.00260789905672228     4.7652469675e-06     8.3048432913e-07 5.31756413208032e-06 5.45462867518658e-06
   0.214802202566991   0.0026374012918376     4.8673451361e-06     8.5877380353e-07 5.29960223341078e-06 5.44704654723034e-06
   0.217201459208565  0.00266654410833769     6.0231028511e-06     8.1879541304e-07 5.29041194876841e-06 5.43989069482991e-06
   0.219600558247049  0.00269601768712778     5.5103562763e-06      7.757090739e-07 5.28684390982186e-06 5.43312027224169e-06
   0.222008182159753  0.00272496925229698     5.0499710532e-06     7.6806426164e-07 5.28670460008835e-06 5.42668786680055e-06
   0.224398104238361  0.00275448858091939     4.8851298393e-06     7.9382985158e-07 5.28878222732082e-06  5.4206390566067e-06
   0.226805304768313  0.00278333652981675     5.5964440963e-06     7.7285996248e-07 5.29281385583803e-06 5.41486378318887e-06
   0.229203554437046  0.00281272531870992     5.3551533217e-06     7.3140833932e-07 5.29917274301363e-06 5.40940720983658e-06
   0.231601594441323  0.00284210802493648     5.7540369503e-06     7.2556965876e-07 5.30866977085711e-06 5.40422948964797e-06
   0.233999428147731  0.00287142337669747     4.4777496115e-06     7.3559078736e-07 5.32217276951721e-06 5.39931367227949e-06
   0.236401406590437  0.00290090232334137     6.3568285403e-06     7.3823368045e-07 5.34035058386527e-06  5.3946357682258e-06
   0.238803167164013  0.00292958118230003     5.4504108218e-06     6.9060619668e-07 5.36333844645225e-06 5.39019007760724e-06
   0.241195991889663  0.00295931870734051     5.2336374262e-06     6.7580342642e-07  5.3904985270257e-06 5.38598707953275e-06
   0.243597312150904  0.00298825967331647     4.4128662057e-06     6.8579877078e-07 5.42028782343565e-06 5.38205529573862e-06
   0.246002755579712   0.0030176384010467     4.4796996598e-06     6.9151246892e-07  5.4487149641185e-06 5.37865381027995e-06
   0.248403638959655  0.00304656629842337     5.1146264921e-06     6.5402656673e-07 5.47099884492427e-06 5.37611836515146e-06
   0.250804290693404  0.00307591522200454     4.6609131944e-06     6.3619614175e-07   5.485820387683e-06 5.37446809886105e-06
