# intensity: 1.04328723465491
# background: 7.76024045172936e-08
#           Q (1/A)             dQ (1/A)                    R                   dR               theory              fresnel
  0.0104548359880815 0.000418193439523262    0.988230931296931   0.0315254642527639     1.04328731225731   0.0787819767021769
   0.010768481067724  0.00043073924270896    0.957766962031083   0.0283982106157959     1.04328731225731   0.0658920600247719
  0.0110915354997557 0.000443661419990229    0.994093377098103   0.0280082751240483     1.04328731225731   0.0582091107826123
  0.0114242815647484 0.000456971262589936    0.938875414986551   0.0243594289769867     1.04328731225731   0.0531871887576531
  0.0117670100116908 0.000470680400467634     1.00029604246075   0.0248130961198408     1.04328731225731   0.0491558652353018
  0.0121200203120416 0.000484800812481663    0.984352694860077   0.0230006958799607     1.04327383490238   0.0455061884859338
  0.0124836209214028 0.000499344836856112    0.949232418062776    0.020770935641056     1.04253554711561   0.0420919579717781
  0.0128581295490449 0.000514325181961796    0.959885453283817   0.0200555053305676     1.03497245535329   0.0388852636251671
  0.0132438734355162  0.00052975493742065     0.98241024134686   0.0196499867285609    0.994981682972753   0.0358787256005532
  0.0136411896385817 0.000545647585543269    0.936614297147769   0.0176804623014664    0.877675535201181   0.0330628490444812
  0.0140504253277392 0.000562017013109567    0.795688199750131   0.0146780581270832    0.674783963685827   0.0304289212603897
  0.0144719380875714 0.000578877523502854    0.474465447090298  0.00884407057610684    0.453187515560624   0.0279718095813084
  0.0149060962301985  0.00059624384920794    0.255374002019207   0.0050870348895581    0.285873101121486   0.0256802432922521
  0.0153532791171045 0.000614131164684178    0.174775082889986  0.00367475398653086    0.186682510258713   0.0235500692307658
  0.0158138774906176 0.000632555099624703     0.12616318249779  0.00280731575543302    0.131963024906289   0.0215700216846782
  0.0162882938153361 0.000651531752613444   0.0996858153765022  0.00229341931635683    0.099744701712651   0.0197337760124238
  0.0167769426297962 0.000671077705191848   0.0786691376980431  0.00187599943318522   0.0788264293561422   0.0180345966659881
  0.0172802509086901 0.000691210036347603   0.0675347839878122  0.00164350705832429   0.0641578501210944   0.0164635206230742
  0.0177986584359508 0.000711946337438031   0.0572532253023745  0.00142372067686685    0.053442191612697   0.0150144228910546
  0.0183326181890293 0.000733304727561172   0.0467630193145894  0.00123197047317533   0.0453918239517422    0.013679461688689
  0.0188825967347002 0.000755303869388007   0.0385110717158709  0.00108662881627277   0.0392148222546341   0.0124512277518858
  0.0194490746367412 0.000777962985469647   0.0352195757722026  0.00101312585771028   0.0343772352904142   0.0113211304960512
  0.0200325468758434 0.000801301875033737   0.0326779657225647 0.000988763240353437   0.0305324281549358   0.0102827522491982
  0.0206335232821187 0.000825340931284749   0.0288869983237215  0.00093292962915844    0.027439726749206  0.00933016572731154
  0.0212525289805823 0.000850101159223292   0.0265700094720953 0.000928029516042066   0.0249245221059069  0.00845798482041993
  0.0218901048499998  0.00087560419399999   0.0238938542448041 0.000902927239331399    0.022855238352107  0.00766104384934276
  0.0225468079954998  0.00090187231981999   0.0225987301081223 0.000817320575469311   0.0211272056330522  0.00693289057097178
  0.0232232122353647  0.00092892848941459   0.0221898160690789 0.000787139735871592   0.0196649169705063  0.00626874598468176
  0.0239199086024257 0.000956796344097027   0.0187195733736032 0.000680685346827129   0.0184088741718555  0.00566368609696856
  0.0246375058604985 0.000985500234419938   0.0187473929292886 0.000661294226432836   0.0173128363025238  0.00511307343565759
  0.0253766310363134  0.00101506524145254   0.0174951849790602 0.000612902509961883   0.0163406228030016  0.00461255239769492
  0.0261379299674028  0.00104551719869611   0.0151883547137127 0.000534000501822181   0.0154637945919076  0.00415804291754345
  0.0269220678664249    0.001076882714657   0.0151238949784123 0.000491154736474801   0.0146599466886571  0.00374573271401006
  0.0277297299024176  0.00110918919609671   0.0142681698418413 0.000447237542086159   0.0139114343801844  0.00337206836200585
  0.0285616217994902  0.00114246487197961   0.0127724959291841 0.000373665742567759   0.0132044115176705  0.00303374542150658
  0.0294184704534749    0.001176738818139   0.0125783963578726 0.000354571533708671   0.0125280965180739  0.00272769783955064
  0.0303010245670791  0.00121204098268317   0.0119080648863143 0.000318756201334383   0.0118742063280564  0.00245108682315262
  0.0312100553040915  0.00124840221216366   0.0107245105810089 0.000273330127898158   0.0112365153780003  0.00220128936212904
  0.0321463569632142  0.00128585427852857   0.0103901487780429 0.000254919837543152   0.0106105081340985  0.00197588656156517
  0.0331107476721107  0.00132442990688443   0.0100075742609879 0.000237016885204023  0.00999310197279283  0.00177265192445899
   0.034104070102274  0.00136416280409096  0.00922752184225109 0.000209154015532916  0.00938242287090926  0.00158953970634684
  0.0351271922053422  0.00140508768821369  0.00850018887651872  0.00018863879954879  0.00877762056349861  0.00142467344575499
  0.0361810079715025   0.0014472403188601  0.00845219501472375 0.000178195130297442  0.00817871286494149   0.0012763347573721
  0.0372664382106475   0.0014906575284259  0.00746187827298443 0.000154791718044237  0.00758645111643016  0.00114295245907558
   0.038384431356967  0.00153537725427868  0.00698886541037854 0.000141650197819063  0.00700220045091986  0.00102309208948468
   0.039535964297676  0.00158143857190704  0.00634555267582014 0.000127209135167985  0.00642782992281916 0.000915445859621755
  0.0407220432266062  0.00162888172906425   0.0059628190522274 0.000116664355616464  0.00586560865500904 0.000818823070561918
  0.0419437045234044  0.00167774818093618  0.00522695857731963 0.000101068904919543  0.00531810509840868 0.000732141018626248
  0.0432020156591066  0.00172808062636426  0.00479159296537988 9.18603404681999e-05  0.00478808734355658 0.000654416400682894
  0.0444980761288798  0.00177992304515519   0.0041050884451407 7.91488895046307e-05  0.00427842321554296 0.000584757224399012
  0.0458330184127462  0.00183332073650985   0.0036940068369135   7.202892917176e-05   0.0037919796539821  0.00052235522175403
  0.0472080089651285  0.00188832035860514  0.00328728179222361 6.58786218166845e-05  0.00333152164591587 0.000466478758689883
  0.0486242492340824   0.0019449699693633  0.00275680862720128 5.76420002505262e-05  0.00289961174602775 0.000416466229339005
  0.0500829767111049   0.0020033190684442  0.00243716906579735 5.43005423346111e-05  0.00249851197678897 0.000371719919735412
   0.051585466012438  0.00206341864049752  0.00202684844787183 4.90071275417469e-05  0.00213009062941109 0.000331700323178369
  0.0531330299928112  0.00212532119971245  0.00176198717567466 4.69708732924696e-05  0.00179573714971529 0.000295920887384551
  0.0547270208925955  0.00218908083570382  0.00159918752173986 4.56770448487855e-05  0.00149628884344296 0.000263943172140481
  0.0563688315193734  0.00225475326077493  0.00115990063521471 3.53270625098961e-05  0.00123197351405076 0.000235372395265438
  0.0580598964649546  0.00232239585859818 0.000931359231608478 3.03839006069975e-05  0.00100237228522907 0.000209853344235593
  0.0598016933589032  0.00239206773435613 0.000742052106318928 2.54629888974309e-05 0.000806406689194576 0.000187066630729503
  0.0615957441596703  0.00246382976638681 0.000574178258459491 2.14695016731988e-05 0.000642353552358114  0.00016672526556742
  0.0634436164844604  0.00253774465937842 0.000491149989742171 1.90000674511316e-05 0.000507890226640423  0.00014857153197321
  0.0653469249789942  0.00261387699915977 0.000376916774883416 1.63880916309429e-05 0.000400171265395442 0.000132374135736486
   0.067307332728364  0.00269229330913456 0.000271262181756523 9.80096911693684e-06 0.000315935732009733 0.000117925611648595
   0.069326552710215   0.0027730621084086 0.000214315040695908   7.810136238401e-06 0.000251642011532756 0.000105039966490637
  0.0714063492915214  0.00285625397166086 0.000171673255631122 6.07170404819175e-06 0.000203624389400016 9.35505398315957e-05
  0.0735485397702671  0.00294194159081068 0.000149331738793875 5.28381860430057e-06 0.000168262958303081 8.33080649220124e-05
  0.0757549959633751    0.003030199838535  0.00013078370309296 4.53534502372154e-06 0.000142155883989314 7.41789130202994e-05
  0.0780276458422763  0.00312110583369105 0.000108218758124602  3.7282381228185e-06 0.000122281044129592 6.60435055457005e-05
  0.0803684752175446  0.00321473900870178 9.78493786489428e-05 3.33633607337945e-06 0.000106132943011183 5.87948794986904e-05
   0.082779529474071  0.00331118117896284 8.70143110116669e-05 2.96058425044884e-06 9.18210016979014e-05 5.23373926141258e-05
  0.0852629153582931  0.00341051661433172 7.78645173398769e-05 2.59089194792924e-06 7.81171821749726e-05 4.65855557052647e-05
  0.0878208028190419  0.00351283211276168 6.49575303841494e-05 2.22090374211781e-06 6.44446482891798e-05 4.14629806108163e-05
  0.0904554269036131  0.00361821707614453 5.07988309694454e-05  1.8232974542526e-06  5.0804794391081e-05  3.6901433067381e-05
  0.0931690897107215  0.00372676358842886 3.61280965997755e-05 1.42645478033933e-06 3.76471639090354e-05 3.28399806925881e-05
  0.0959641624020432  0.00383856649608173 2.58237002156588e-05 1.13667898048548e-06 2.56948255254761e-05 2.92242270779009e-05
  0.0988430872741045  0.00395372349096418 1.61487416821265e-05 8.47884860715067e-07 1.57455624645038e-05 2.60056237535349e-05
   0.101808379892328  0.00407233519569311 7.10546446635276e-06 5.28155792187066e-07 8.47532144616252e-06 2.31408525012205e-05
   0.104862631289097   0.0041945052515639 2.87085793175585e-06  3.1351243987028e-07 4.27318661738082e-06  2.0591271154363e-05
    0.10800851022777  0.00432034040911082 1.15481406278973e-06 1.90381032286344e-07 3.13529213997808e-06 1.83224166407811e-05
   0.111248765534603  0.00444995062138414 2.66165855785159e-06 2.80772172676396e-07   4.637752340107e-06 1.63035595923476e-05
   0.114586228500642  0.00458344914002566 5.88700607442212e-06 4.14778198051937e-07 7.99607083588037e-06 1.45073053705059e-05
   0.118023815355661  0.00472095261422643 9.71453615537449e-06 5.30887822406463e-07 1.22021301563517e-05 1.29092368390167e-05
   0.121564529816331  0.00486258119265323  1.5092548955099e-05 6.59778036267896e-07 1.62127144921532e-05 1.14875946577445e-05
   0.125211465710821  0.00500845862843283 1.89544939194121e-05 7.60442892636752e-07 1.91496210287871e-05 1.02229912762424e-05
   0.128967809682145  0.00515871238728581  2.1041929135007e-05 8.13741652896978e-07 2.04650912098965e-05  9.0981551757672e-06
    0.13283684397261  0.00531347375890438 2.11864859833087e-05 8.53992966817375e-07 2.00309104994565e-05 8.09770224557247e-06
   0.136821949291788  0.00547287797167151 1.96285253684325e-05 8.40585145437724e-07 1.81260840250384e-05 7.20793148624008e-06
   0.140926607770542  0.00563706431082166 1.53403811992879e-05 6.89041262947206e-07 1.53239853918605e-05 6.41664251170424e-06
   0.145154406003658  0.00580617624014631 1.28029047826551e-05 6.07253595557683e-07 1.23089881006281e-05 5.71297257468409e-06
   0.149509038183768   0.0059803615273507 1.01226084779902e-05 5.11542984092706e-07 9.67580262124368e-06 5.08725106955251e-06
    0.15399430932928  0.00615977237317122 7.42908395744797e-06 4.21120472267493e-07 7.77294425404066e-06 4.53086967419912e-06
   0.158614138609159  0.00634456554436636 6.02129936024541e-06 3.63572805273183e-07 6.63939622201304e-06 4.03616648004189e-06
   0.163372562767434  0.00653490251069735  6.6919536255968e-06 3.81678893471857e-07 6.05203202307702e-06 3.59632262873615e-06
   0.168273739650457  0.00673094958601827 6.34696694519884e-06 3.57786053905083e-07 5.66050027616615e-06 3.20527012693373e-06
    0.17332195183997  0.00693287807359882 5.92283203710248e-06 3.38843521176371e-07 5.15198296451782e-06 2.85760964815214e-06
    0.17852161039517  0.00714086441580678 5.62506040438278e-06 3.23647133012412e-07 4.37652216631806e-06 2.54853725480723e-06
   0.183877258707025  0.00735509034828098 3.72804653030089e-06 2.55278626390888e-07 3.38248500208344e-06 2.27377908501651e-06
   0.189393576468235  0.00757574305872941 2.70097090832618e-06 2.19034871230779e-07 2.35506290874602e-06 2.02953314906548e-06
   0.195075383762282   0.0078030153504913  9.4036337148297e-07 1.27092786377425e-07 1.49837059114224e-06 1.81241747051889e-06
   0.200927645275151  0.00803710581100603  7.3894408651157e-07 1.12892739084947e-07  9.2830534738812e-07 1.61942388783593e-06
   0.206955474633405  0.00827821898533621 3.99280059324149e-07 7.99381192832011e-08 6.32474040290178e-07 1.44787690490924e-06
   0.213164138872408   0.0085265655548963 4.44829721073299e-07 8.57061733042815e-08 5.09927964154627e-07 1.29539704400877e-06
    0.21955906303858  0.00878236252154319 5.44965649438497e-07 1.01334509585383e-07 4.53339361629626e-07 1.16022807553935e-06
   0.226145834929737  0.00904583339718949 5.81490650120536e-07 1.14209313577142e-07 4.11570279046516e-07 1.04278846201846e-06
   0.232930209977629  0.00931720839910517 5.53424446592164e-07 1.18159518355822e-07 3.87529465075709e-07 9.48119201156936e-07
   0.239918116276958  0.00959672465107833 7.36106593051015e-07 1.44630692690275e-07  3.8873328219482e-07 8.81083726366085e-07
   0.247115659765267  0.00988462639061068 3.27518660652108e-07 9.88436130919978e-08   4.051685878268e-07 8.38635954716255e-07
