# intensity: 1.00426320726487
# background: 2.09884214536404e-06
#           Q (1/A)             dQ (1/A)                    R                   dR               theory              fresnel
 0.00820205148389361 0.000104571538162829        0.94042127662       0.020258761055     1.00426530610702    0.120611697944846
 0.00871088165677612 0.000110170436554694        0.96468354227       0.020226066995     1.00426530610702     0.10416183446307
 0.00921971147260535 0.000116745532613833        0.97079721644       0.020121600694     1.00426530610702   0.0924819582106533
 0.00970658768291824 0.000122483939135511        0.97337785591       0.020279988109     1.00426530610702    0.082677446791196
  0.0102044653487515 0.000129017421120291        0.99557930958       0.021085442115     1.00426530610702   0.0738611670355348
  0.0107198794186196 0.000134834167786913        0.99774126173       0.020618389947     1.00426530610702   0.0658380102131552
  0.0112111571994495 0.000141373495572004         0.9987182978       0.020468967469     1.00426530610702   0.0590773020105277
  0.0117046406812773 0.000146920078692781         1.0035928266       0.020685919128     1.00426530610702   0.0531006988669082
  0.0122112711722823 0.000153455282894846        0.99744285755       0.020907138128     1.00426530610702   0.0476901542272586
  0.0127200973129449 0.000159280765907883         1.0051030258       0.020607493284     1.00426530610702   0.0428899394382024
  0.0132047791440756 0.000165575394203287         1.0068367122       0.020481880295     1.00426530610702   0.0388330097170536
  0.0137070471687149 0.000171563446788482        0.99865338281       0.020430051963     1.00426530610702   0.0350930005422211
  0.0142202561691796  0.00017806221072509        0.94694268522       0.019708224304    0.994214193390832   0.0317007108375988
  0.0147159304304938  0.00018430476977271         0.4818504735      0.0098755600991    0.615089806931878   0.0287836021201822
  0.0152093776774338 0.000190228015665599        0.23204933846      0.0047867014696    0.288373558909864    0.026188882143998
  0.0157160556622218 0.000196451667719709        0.15293694318      0.0032076252777    0.181663676808796   0.0238070356142112
   0.016220459132269 0.000202417741215401        0.10837367154      0.0023339461332    0.127321619222954   0.0216866855620026
  0.0167139161789462 0.000208932478175394        0.08261240226      0.0017603113986   0.0946405626318507   0.0198254121195688
  0.0172073642083212 0.000214514259209038       0.064198739685      0.0013781846139    0.072655374012279   0.0181505968039352
  0.0177118311155859 0.000221071422266594       0.051287607468        0.00112058345     0.05680910789672   0.0166103610230613
  0.0182206518211709 0.000226868772833734       0.041878828386     0.00093863990418   0.0451501053832446   0.0152121590873633
  0.0187141025724152 0.000233414043210994       0.034897041117     0.00077618690841   0.0367172804278476   0.0139932931304051
  0.0192163311321659 0.000239132396201797       0.029505276495     0.00066166954692   0.0300745629251645   0.0128695544084006
  0.0197207881796498 0.000245742869809922       0.024928613123     0.00056922928254    0.024807982805524   0.0118450168941586
  0.0202120536005378 0.000251503497389043       0.021497382885      0.0005030374581   0.0207301185547873   0.0109398006842132
  0.0207077257913032 0.000257839796644931       0.018389141989     0.00042927877615   0.0174172193729182    0.010109782719625
  0.0212121460014047 0.000263837957034588       0.016273428581     0.00038170379031   0.0146794391280075  0.00934177947324894
   0.021720959840157 0.000270411463134508       0.014421171716     0.00034362209324   0.0124211025047625  0.00863695740912747
  0.0222166221099502 0.000276530589517096       0.013088962395     0.00031804765139   0.0106063496602334  0.00801135883927168
  0.0227100668739061 0.000282300004881732       0.011661152119     0.00028326700722  0.00910202308174693  0.00744226765977446
  0.0232210815867979 0.000288510100801158       0.010075319114     0.00024736290961   0.0077995027177068  0.00690359866754465
  0.0237124147360487 0.000294481253925302      0.0091784957403      0.0002283491178   0.0067464586363941   0.0064295476892122
  0.0242123841576793  0.00030099608073952      0.0081872962091      0.0002084304706  0.00584035702162825  0.00598727266893669
  0.0247211911382775 0.000306794950236925      0.0073120193556     0.00018673134825  0.00506017788575428  0.00557505415107286
  0.0252212283389283 0.000313333679330513      0.0066580714925      0.0001521029448  0.00443590060228918  0.00521331856746658
  0.0276183134723783 0.000342373013070501      0.0042495052754     0.00011362611666  0.00239570918407609  0.00380506885541487
   0.030008755052926 0.000372375964507275      0.0027195620028     7.7930941748e-05  0.00135048577008003  0.00282921104024334
  0.0324102252006377 0.000401401222935384      0.0016858937884     5.3699973091e-05   0.0008049869723331  0.00214036801848391
  0.0348094065691436 0.000431004377515668      0.0011925729627     4.0071175213e-05  0.00051470476633352  0.00164698604895789
  0.0372107633815314 0.000460924209096752     0.00091976044572     3.2059828454e-05 0.000357454493854403  0.00128623393086186
  0.0396099049162278 0.000490031644184814     0.00077174902963     2.7475934503e-05  0.00027156364939967  0.00101841074106888
  0.0420111812135391 0.000519856793546608     0.00075220754225     2.5585058445e-05 0.000224160079377119  0.00081613698731319
  0.0444080659679137 0.000549108304349941     0.00072485168396     2.4114167428e-05 0.000197650913862302 0.000661610210139867
  0.0468114342465384 0.000578723747072102     0.00079543796659     2.4606757598e-05 0.000182203755041551 0.000541515099227594
  0.0492082317914593 0.000607911456450972     0.00081114203687     2.4149907516e-05 0.000172504344463851 0.000447592085336759
  0.0516137402015099  0.00063774912242281      0.0008555855957     2.4553236457e-05 0.000165474771843312 0.000372884152286774
  0.0540148062690754 0.000666797662410754     0.00080413659193     2.2608734135e-05  0.00015947206304193 0.000313204147255072
  0.0564136336322152 0.000696421584547718     0.00073335198344     2.0897064006e-05 0.000153555698479939 0.000265041926245617
  0.0588255723170298  0.00072606525755246     0.00068140540058      1.896895103e-05 0.000147184777835049 0.000225606669580581
  0.0612155426719596 0.000755436073637844      0.0006131613404     1.7162700982e-05 0.000140209438941391 0.000193526685223369
  0.0636229647456873  0.00078542879823095     0.00053954760843     1.5326033451e-05 0.000132428388973753 0.000166803014277095
  0.0660237687831909 0.000814285328993833     0.00048287476174     1.3653208403e-05 0.000123931275481646  0.00014461721832516
  0.0684135207694558 0.000844235860392281     0.00042580296411     1.2280562568e-05 0.000114828454977665 0.000126110316495017
  0.0708142412332629 0.000873412424528149     0.00039580661525     1.1249988092e-05 0.000105176094985378 0.000110436678746267
  0.0732192108059953 0.000903066013510706     0.00038830096636     1.0893443758e-05 9.51736674693538e-05 9.71314610747318e-05
  0.0756066557620272 0.000932233152975182     0.00039346744622     1.0870685222e-05 8.51118492514084e-05  8.5877580772709e-05
  0.0780115041648125 0.000961682893682779      0.0004075900885     1.0840158047e-05 7.50514756813161e-05  7.6172097480895e-05
  0.0804097279294153 0.000991258463835793     0.00040001183269     1.0728896632e-05 6.52983891875741e-05 6.78489609694043e-05
  0.0828100557073261  0.00102084045354464     0.00040545130424     1.0445651016e-05 5.60060747841456e-05 6.06537807420079e-05
  0.0852037413408711  0.00105051738088324     0.00039828021459     1.0189034031e-05 4.73714401720491e-05 5.44302035161805e-05
  0.0876061187055303  0.00107945788151168      0.0003922543717     1.0031144408e-05  3.9471953469645e-05  4.8991726782582e-05
  0.0900106034633383  0.00110958838749331     0.00035479245702     8.9678797134e-06 3.24288423064067e-05 4.42360500128634e-05
   0.092406247346673  0.00113842173600229     0.00031591822822     8.2472361537e-06 2.63252010153686e-05 4.00812210837699e-05
  0.0948083865600452  0.00116840060341181     0.00028313734905      7.295329819e-06 2.11365902243024e-05 3.64160182877035e-05
   0.097212597546579   0.0011976782238877     0.00024690532014     6.4597459106e-06 1.68560549278659e-05 3.31788811706828e-05
  0.0996211349388352  0.00122703260895603     0.00019904836892      5.424663388e-06    1.34308276436e-05 3.03088119525421e-05
   0.102007665720173  0.00125654352161027     0.00016484333687      4.563999053e-06 1.08144126627105e-05 2.77839450941068e-05
   0.104413817302472  0.00128597603090075     0.00014381280847     4.1609406585e-06 8.86705829694161e-06 2.55175877317851e-05
   0.106815483475489  0.00131572632068992     0.00013369107922     3.7882541235e-06  7.5114993902905e-06 2.34989498673374e-05
   0.109219252479302  0.00134479128804437      0.0001238101761     3.5172064553e-06 6.63704923512393e-06 2.16912598843401e-05
    0.11162072801636  0.00137456657179513     0.00011425814612     3.2738804224e-06 6.14297834484316e-06 2.00716791025548e-05
   0.114024292552762  0.00140353361092789     0.00011148929981     3.1442982976e-06 5.93328643349663e-06 1.86145258052089e-05
   0.116412413695029  0.00143340456818804     0.00010752316696     3.0998917888e-06 5.92446067740439e-06 1.73099719824273e-05
   0.118813568869958  0.00146240302283355      0.0001011838457      2.787417455e-06 6.04564366403692e-06 1.61254612902401e-05
   0.121212425915454  0.00149234165607291     9.6163217378e-05     2.6328526327e-06 6.23986047141458e-06 1.50548641459737e-05
   0.123615568785572  0.00152189541287715     8.5959313873e-05     2.4067398962e-06 6.46355022178207e-06 1.40826918380657e-05
   0.126012011525565  0.00155086685673405     7.9147492517e-05     2.2544534791e-06  6.6833106187057e-06 1.32022470741143e-05
   0.128414932633956  0.00158059816960102      6.690692774e-05     1.9751979413e-06 6.87786099007682e-06 1.23990533553726e-05
   0.130811147018846  0.00160977808501138      5.394557596e-05     1.6846493848e-06 7.03163021269291e-06 1.16690513089799e-05
   0.133213819396589  0.00163934129830848     4.2612585873e-05     1.4254635042e-06 7.13686319137761e-06 1.10008172933318e-05
   0.135614172965879  0.00166847783198881     3.4312349983e-05     1.2470023337e-06  7.1886818152765e-06  1.0390391580663e-05
   0.138014400452855   0.0016982169197273      2.538842805e-05     1.0331344934e-06 7.18560245306982e-06 9.83138879507301e-06
   0.140414503185178  0.00172718552453225     2.0401880397e-05     9.1307374828e-07 7.12787363726151e-06 9.31867891045371e-06
   0.142812296238775  0.00175706191974192     1.5917959945e-05     8.1562884394e-07 7.01700928312306e-06 8.84817444248922e-06
   0.145209961326381  0.00178638247599278     1.3010019891e-05     7.7292419803e-07 6.85534563453889e-06 8.41537018651386e-06
   0.147616244910275   0.0018155190228911     1.1282400833e-05     6.9662102899e-07 6.64532043177998e-06  8.0152943735339e-06
   0.150013639199818   0.0018454146629089     9.6808122521e-06     6.4169653162e-07 6.39277468275919e-06 7.64767980100217e-06
   0.152406510847037  0.00187415425478709     7.8854624893e-06     6.0231484619e-07 6.10310737767128e-06 7.30876834121744e-06
   0.154811646428196  0.00190407334377215      9.572375751e-06      7.136060187e-07 5.78095541879274e-06 6.99378298264231e-06
    0.15720205207569  0.00193316412544404     7.7128434508e-06     6.4288099326e-07 5.43808843029826e-06 6.70393999593574e-06
   0.159606910651973  0.00196267643256216     7.0560157705e-06     5.9835244251e-07 5.07958828248545e-06 6.43368870354183e-06
   0.162011616476142  0.00199196978541526     7.8252182171e-06      5.998961776e-07 4.71761412990728e-06 6.18294810745497e-06
   0.164407425279393  0.00202150051896979     6.8132187651e-06     5.8410304876e-07 4.36382609399305e-06 5.95089894147516e-06
   0.166814753096245  0.00205082741405881     5.3332378769e-06     5.3839164187e-07  4.0253264072414e-06 5.73408603032623e-06
   0.169216080434542  0.00207994300433922     5.0752632764e-06     5.1048462117e-07 3.71385277057352e-06 5.53278583701813e-06
     0.1716143465052   0.0021097783390489      3.641740675e-06     4.7418409992e-07 3.43665267560607e-06 5.34545395036484e-06
   0.174012455586599  0.00213872038096008     2.5461663524e-06     4.6118555115e-07 3.19914762364243e-06 5.17072412043471e-06
   0.176407478127698  0.00216835088894227     2.1531124671e-06     4.4401219565e-07 3.00519667233021e-06 5.00779205638737e-06
   0.178811101185404  0.00219727609208701     1.5170202315e-06     4.0551742961e-07 2.85525304718952e-06 4.85498150143733e-06
   0.181199985949159  0.00222687454728581     1.3533541591e-06     3.9106453261e-07 2.74961603056115e-06 4.71292008795061e-06
   0.183606187610012  0.00225616942160775     9.1309153876e-07     3.8963709415e-07 2.68378649883714e-06 4.57895583930667e-06
   0.186000558666495  0.00228562767486026     1.5369394716e-06     3.9833357612e-07   2.653866720411e-06 4.45405738456066e-06
    0.18841226627729  0.00231496634538107     5.5600684639e-07     3.5733578368e-07 2.65343772851493e-06 4.33609601403133e-06
   0.190800453713761   0.0023439632355204     6.6232133157e-07     3.4654198149e-07  2.6755777863957e-06 4.22646957380876e-06
   0.193214720385489  0.00237367094262953     3.2296415994e-07     3.4434679018e-07 2.71365169178323e-06 4.12238423698926e-06
   0.195605486344249  0.00240269983898033     1.0393211062e-06     3.6114754925e-07 2.76011215867355e-06 4.02550417995528e-06
   0.198001905216771  0.00243232824119845     8.5366250841e-07     3.3259512839e-07 2.80931589981168e-06 3.93414372986939e-06
   0.200406888049382  0.00246137374146768     1.3522113278e-06     3.2716985665e-07 2.85616125452445e-06 3.84783360158125e-06
   0.202802937664942  0.00249080781956453      2.039141174e-06     3.3745829929e-07 2.89626914043629e-06 3.76682810326042e-06
    0.20521046691733  0.00251988460492845     2.4351595507e-06     3.5584701315e-07 2.92710711160531e-06 3.69010106737883e-06
   0.207603218566286  0.00254944940786291     2.3494990003e-06     3.2891939497e-07 2.94664962382093e-06 3.61816492422161e-06
    0.21000162860964  0.00257887866559327     3.3843908233e-06     3.2890629428e-07 2.95443367893159e-06 3.55008997518107e-06
   0.212399834551536  0.00260772117739391      3.246467622e-06     3.2294606415e-07 2.95051289581185e-06 3.48579596152683e-06
   0.214797835484885  0.00263750613598315     2.2574147794e-06     3.1716442649e-07 2.93566810738073e-06 3.42502261623673e-06
   0.217195652653388  0.00266630723175792     2.8860862083e-06     3.0782191184e-07 2.91104636619361e-06 3.36754356542884e-06
   0.219604936451322   0.0026959430581511     2.8046527436e-06     2.9262333271e-07 2.87784268720273e-06 3.31289136167586e-06
   0.222011092554272   0.0027249806705797     1.9230021494e-06     2.7878388829e-07 2.83768856160425e-06 3.26121338201828e-06
   0.224396646123266  0.00275429934727365     1.6226653924e-06     2.8376591525e-07 2.79239646085324e-06 3.21266397793703e-06
   0.226805304768313  0.00278370336568365     1.0134455126e-06     2.6711804934e-07 2.74248802524453e-06 3.16618812301562e-06
   0.229202106953417  0.00281290297517988     6.9608808893e-07      2.490746914e-07 2.68991738441614e-06 3.12232147603291e-06
   0.231601594441323   0.0028422303657563     1.0471486058e-06     2.4855854721e-07 2.63556054544204e-06 3.08063922686809e-06
   0.234003797505872  0.00287125707463948     9.4595012711e-07     2.5350481309e-07 2.58053734593674e-06 3.04101267342912e-06
   0.236402865895472  0.00290099980828408     6.8835615696e-07     2.4649912036e-07 2.52608478334236e-06 3.00341323959399e-06
   0.238801719765771  0.00292957551519599     1.0385543147e-06     2.3526900632e-07 2.47323314373481e-06 2.96767207798087e-06
   0.241200361345104   0.0029593052028231     1.4045927786e-06     2.3392642358e-07 2.42317872403915e-06 2.93375521925695e-06
   0.243592941122373  0.00298824257157727     1.3168568981e-06     2.3735537649e-07 2.37780236050875e-06 2.90221449017776e-06
   0.245999863555121   0.0030174133292432     1.3242815683e-06     2.3891299038e-07 2.34003756461917e-06 2.87480245850472e-06
    0.24839491789022  0.00304674592720909     1.2437939413e-06     2.2434308729e-07 2.31331791467341e-06 2.85442670603972e-06
   0.250801387234885  0.00307587368752951     1.0167351098e-06     2.1750697923e-07 2.29662021850174e-06 2.84109222857355e-06
