# intensity: 1.00016255427211
# background: 1.00252076578842e-06
#           Q (1/A)             dQ (1/A)                    R                   dR               theory              fresnel
 0.00804054282534102 0.000105743997458504     1.00359996961248  0.00375238624546899     1.00016355679288    0.117819123596053
 0.00854937310719565 0.000111338273623245    0.999636187270762  0.00352630663345502     1.00016355679288    0.106472429470124
 0.00905820303861713 0.000117913150656643       1.001274708276  0.00332567864029605     1.00016355679288   0.0944282850760027
 0.00954507936573295 0.000123649223972668     1.00641291593859  0.00315376007338087     1.00016355679287   0.0843289939246877
  0.0100429571572767 0.000130183008344553    0.999323786069001  0.00299520722002444     1.00016355679288   0.0752575146092847
  0.0105583713639602 0.000135996667170801     1.00230810165888  0.00284682272260938     1.00016355679288   0.0670169428610684
  0.0110496492815216 0.000142536713484465    0.998974682876029  0.00271826451781573     1.00016355679288   0.0601118653902695
  0.0115431329069079 0.000148080580437094    0.995810162847836  0.00260013162763824     1.00016355679288   0.0539896709853291
  0.0120497635517739 0.000154615893123723     1.00209416723358  0.00248889799485927     1.00016355679288   0.0484419340303781
  0.0125585898535704 0.000160439197377686    0.999301912139223  0.00238619171124207     1.00016355679288   0.0435217901375091
  0.0130432718443455 0.000166734127696566     1.00350016923236  0.00229578636537749     1.00016355679288   0.0393688527788783
  0.0135455400407594 0.000172720924840689    0.997917662406352  0.00220884914249104     1.00008851049918    0.035546825218213
  0.0140587492234036  0.00017921955717536    0.925792948642868   0.0020499029577537    0.926728038938519   0.0320808500834577
  0.0145544236670664 0.000185461905273848    0.514678977891997  0.00147053769320415    0.515416132580666      0.0291033529899
   0.015047871101776    0.000191384189065    0.193557609681111 0.000869341602261855    0.193791888186866   0.0264583125714645
   0.015554549285847  0.00019760727365354    0.101088229468992 0.000609811835157077    0.101113416918181   0.0240325491513994
  0.0160589529608031 0.000203572243552613   0.0814949690006804 0.000531362630452923   0.0817579720311404   0.0218738275200481
  0.0165524102142379 0.000210087603511847   0.0776420499548097 0.000499954570529211   0.0769870817508966   0.0199810672614745
  0.0170458584565931 0.000215667776682577   0.0766830490868082 0.000484487435553634   0.0768149118905732   0.0182802233863083
  0.0175503255880304 0.000222225336650115   0.0788213730134711 0.000474486225168504   0.0782688419447302   0.0167168174115457
  0.0180591465263146 0.000228021238242126   0.0792497438672737 0.000466094136485766   0.0801459388558158   0.0152981449669167
  0.0185525975095525 0.000234567192797128   0.0818905426318996 0.000457999475011085   0.0818514281698396   0.0140577679743524
  0.0190548263118172 0.000240284195881225   0.0839384839226751 0.000449229013660385   0.0832526649591973   0.0129171504557081
  0.0195592836093841 0.000246895184883764   0.0844528183824632 0.000439730602492066   0.0842370983981061   0.0118811605055709
  0.0200505492800698 0.000252654912936647   0.0849345261879179 0.000429839050150141   0.0847691493731611   0.0109666306879263
  0.0205462217291286 0.000258991388597735   0.0849308799391506 0.000419301472516876   0.0848893486376556   0.0101286528987237
   0.021050642208532   0.0002649888449053   0.0849853909499695 0.000408118708357375    0.084611099012106  0.00935381452951597
  0.0215594563255237 0.000271562667914802   0.0835622097851745 0.000396483362463251   0.0839561219784912  0.00864318591709037
  0.0220551188727304 0.000277681560132266   0.0826643773006163  0.00038490192344509   0.0829919217193544  0.00801285591812356
  0.0225485639190993 0.000283450163924327   0.0824121736433047 0.000373210990992561    0.081744546419358  0.00743980709949498
   0.023059578931023  0.00028965987389504   0.0809595863320432 0.000361012757689575    0.080186832589614  0.00689772267314594
  0.0235509123740855  0.00029563067118954   0.0784930128753906 0.000349257238523152   0.0784651677007239  0.00642094813487205
  0.0240508821010295 0.000302145905450486   0.0765113872984969 0.000337315913929617   0.0765160869217723   0.0059763860556115
  0.0245596893989009 0.000307943770516355   0.0744214193064986 0.000325228430569382   0.0743562644200369  0.00556228253456018
  0.0250597269178065 0.000314482941992346   0.0723482935463359 0.000313381713809706   0.0720551867629887  0.00519915748474821
  0.0274568136657097 0.000343520677596187   0.0600281683442337 0.000259145031866821   0.0598831810746661   0.0037872217375392
  0.0298472570025741 0.000373523746698237   0.0471308025324303 0.000209970795192264    0.047068963738646  0.00281086850879353
  0.0322487290618577  0.00040254764884453   0.0349751216736155 0.000166091870693543   0.0348644417632122  0.00212303770292638
  0.0346479124873993 0.000432150365537895   0.0242398691774797  0.00012796646797819   0.0242423168202428  0.00163124243740287
  0.0370492715061091 0.000462070143302977   0.0156325779520409 9.54438567333323e-05   0.0156581399114012  0.00127220877135496
  0.0394484153923822 0.000491176683778566   0.0092938451051013 6.83817288453604e-05  0.00925741738891055  0.00100603018153971
  0.0418496941907879 0.000521001738954998  0.00496184986231311 4.65160428162416e-05  0.00489860424479361 0.000805247706583992
  0.0442465815887759  0.00055025266242561  0.00225649059417776 2.98379380624756e-05  0.00228760480878481 0.000652031096658955
  0.0466499526657275 0.000579867833672628  0.00102075670409265 1.87838310810188e-05  0.00102109907277609 0.000533074148450633
   0.049046753148489 0.000609054992202961 0.000674532264250474 1.46122318077378e-05 0.000693941927820324 0.000440126199345862
  0.0514522646548303 0.000638892607090282  0.00091895248703797 1.58943050606764e-05 0.000925879035810148 0.000366255376461553
  0.0538533339606081 0.000667940511068046  0.00141263129039468 1.84831941221031e-05  0.00140502357560376 0.000307288985961979
  0.0562521647062469 0.000697564309706718  0.00188649077062015 2.03596230787137e-05  0.00190241303680017  0.00025973578848308
  0.0586641069405042 0.000727207761015035   0.0022556318019854 2.11164945735114e-05  0.00227558059703624 0.000220824176007545
  0.0610540809593902  0.00075657836948859  0.00241170736066489 2.08227564289498e-05  0.00244975323337365 0.000189188869622962
  0.0634615068716144 0.000786571175237133   0.0024276789111897 1.96805721251029e-05  0.00241740527664814 0.000162850034058015
  0.0658623148847852 0.000815427085560988   0.0022128399081514 1.79236305686366e-05  0.00220830265564405 0.000140994808480815
  0.0682520709749286 0.000845377818139582  0.00190094881226864 1.57747579994821e-05   0.0018783478329363  0.00012277224271255
  0.0706527957086446 0.000874554008485895  0.00148928639805914 1.34055654562403e-05  0.00148656846894497 0.000107346177511834
  0.0730577697067785 0.000904207496955608  0.00107392747646818 1.09866019913871e-05  0.00109165448886975 9.42564942787579e-05
  0.0754452192024281 0.000933374384231703 0.000752704490389858  8.6805498236667e-06 0.000742540210296439 8.31891635329924e-05
  0.0778500723254629 0.000962823922382589 0.000470202257505743 6.57792740581088e-06  0.00046326088920467  7.3647996343508e-05
  0.0802483009447896 0.000992399411746807 0.000264338805435296 4.82354298532925e-06 0.000269230154653501 6.54685404786479e-05
  0.0826486337291646  0.00102198131196025 0.000158408633104494 3.55395150350794e-06 0.000156958919743624 5.83998205725107e-05
  0.0850423245022675  0.00105165824256526 0.000109145802500051 2.91513456814562e-06 0.000113314151695302  5.2287460974091e-05
  0.0874447071727053   0.0010805983225614 0.000122311640765081 2.86281838583787e-06 0.000118586317989831 4.69476852006799e-05
   0.089849197388981  0.00111072899203138 0.000154217747786361 3.10143754317965e-06 0.000151802885530051 4.22795711653099e-05
  0.0922448468580126  0.00113956193092607 0.000192101113998304 3.35833998056165e-06 0.000193489022135855 3.82022774223269e-05
  0.0946469918198678  0.00116954089746391 0.000230470255549616 3.51109012883747e-06 0.000229054689856781 3.46063392949395e-05
  0.0970512087078909  0.00119881828208907 0.000250418411426791 3.52363898976364e-06 0.000249087926151299 3.14311046710986e-05
  0.0994597521607851  0.00122817244962902 0.000252804740229183 3.40007662298439e-06 0.000249809367448486 2.86165321354861e-05
   0.101846289094032  0.00125768333616241 0.000234164081842445 3.16432578820601e-06  0.00023235972647003 2.61409989153689e-05
   0.104252447026616  0.00128711568258092 0.000198946166633683 2.84053131255165e-06 0.000200713931096344 2.39193624463702e-05
   0.106654119686084  0.00131686596691401 0.000160176296463365 2.46116377030486e-06 0.000161043066809664 2.19409322217053e-05
   0.109057895330105  0.00134593064045472 0.000116592954455369 2.05453872872006e-06 0.000119476289895066  2.0169565578787e-05
   0.111459377648985  0.00137570593018264 8.04978403098099e-05 1.64901459792915e-06 8.14160251664977e-05 1.85828015222161e-05
     0.1138629491212  0.00140467265091948 5.03722511088205e-05 1.27021185647992e-06 5.05114305985278e-05 1.71554087690033e-05
   0.116251077301463  0.00143454371286145  2.7181407254373e-05 9.48065670685472e-07 2.87717357679463e-05 1.58777000225784e-05
   0.118652239700297  0.00146354188275991 1.66463822662525e-05 7.11209672553299e-07 1.60141691020998e-05 1.47177390255866e-05
   0.121051104110489  0.00149348059043481 1.08048242725629e-05 5.94344962086255e-07 1.11065001757917e-05 1.36694827025015e-05
   0.123454254506509  0.00152303426008678 1.22114372685175e-05  5.9221692638976e-07 1.19187774451719e-05 1.27177298638687e-05
   0.125850704899005  0.00155200544296043  1.5729916757824e-05 6.47489410982609e-07 1.60172880755564e-05 1.18558932290962e-05
   0.128253633828583  0.00158173673407287 2.22162590385263e-05 7.07008082981319e-07 2.11572594431256e-05 1.10697761562606e-05
   0.130649856160428  0.00161091646809027 2.49583871438157e-05 7.45082996240689e-07 2.55364899509872e-05 1.03553831035862e-05
   0.133052536654554  0.00164047960354078  2.6831121753702e-05 7.54129082106169e-07 2.80583584277831e-05 9.70151537226733e-06
   0.135452898480411  0.00166961592993458  2.8682341723101e-05 7.34483759770448e-07 2.82634305351822e-05 9.10428184561713e-06
   0.137853134371476  0.00169935500716576 2.59293294193022e-05 6.90375653197928e-07 2.62820960279326e-05  8.5574206063368e-06
   0.140253245655416  0.00172832335764072 2.27247489289578e-05 6.27751187830865e-07 2.26441638107389e-05 8.05590044752834e-06
   0.142651047400171  0.00175819979275504 1.89383059783554e-05 5.53301554601628e-07 1.80850138339068e-05 7.59571216498095e-06
   0.145048721326182  0.00178752021643033 1.34982002805643e-05  4.7375829730057e-07  1.3351387341961e-05 7.17243971318411e-06
   0.147455013928781  0.00181665654510156 9.28841877944125e-06 3.95563297575388e-07 9.05681292957312e-06 6.78121272069651e-06
   0.149852417351708  0.00184655222617988 5.67400272512625e-06 3.25932311864362e-07 5.65764257687347e-06 6.42176261300694e-06
   0.152245298262412  0.00187529153668745 3.75462119989503e-06 2.70977826731515e-07 3.33228937482878e-06 6.09040799368379e-06
   0.154650443302884  0.00190521064246945 1.91918590180471e-06 2.35235897559321e-07 2.05183256645805e-06 5.78247296577521e-06
   0.157040858499151  0.00193430125633089 1.10913326722673e-06 2.19647129587565e-07 1.65426084018021e-06 5.49924028194083e-06
   0.159445726830242  0.00196381346446858 2.10452238112415e-06 2.18823908613704e-07 1.86815199881054e-06 5.23498359296456e-06
    0.16185044255736  0.00199310665907354 2.35050366996069e-06 2.24913321685089e-07 2.40761459039515e-06 4.98991582210653e-06
   0.164246261374879  0.00202263732928731 3.13522977470946e-06 2.31437778164858e-07 3.01226156856799e-06 4.76313414503976e-06
   0.166653599402928  0.00205196406797894 3.66959410148989e-06 2.34814742773756e-07 3.49656413453494e-06 4.55125877565951e-06
   0.169054937075575  0.00208107946749093 3.79508821237125e-06 2.33620821377326e-07 3.74800623391755e-06 4.35455721432986e-06
   0.171453213615577  0.00211091480868669 3.66453174930222e-06 2.27900461800122e-07 3.73794694442235e-06 4.17151782553162e-06
   0.173851333313719  0.00213985662759907 3.51067995536175e-06 2.18481599036851e-07 3.49860485146431e-06 4.00080346706886e-06
   0.176246366605723   0.0021694870975629 3.36905300908876e-06 2.06606818504055e-07  3.1004123347946e-06 3.84162639110791e-06
   0.178650000601496  0.00219841205988824 2.78545087499918e-06 1.93580401535869e-07 2.62567448372601e-06 3.69234727054036e-06
   0.181038896383737  0.00222801048648704 1.65384658549323e-06  1.8082252007196e-07 2.15767693033151e-06 3.55357765990434e-06
   0.183445109291612  0.00225730520491297  1.8480424349304e-06 1.69221383748135e-07 1.74983362238316e-06 3.42272564491155e-06
   0.185839491687956  0.00228676337702477 1.47731201027402e-06 1.59598227638647e-07 1.44109308184495e-06  3.3007361343398e-06
   0.188251210870129  0.00231610188667076 1.03223296411363e-06 1.52070282080753e-07 1.23647087993584e-06 3.18552888457624e-06
   0.190639409912923  0.00234509860550588 1.00406702396874e-06 1.46565206437733e-07 1.12720426448984e-06 3.07846805857621e-06
   0.193053688467238   0.0023748062308935 1.06884126612752e-06 1.42491189997151e-07 1.08654766739693e-06 2.97682430832466e-06
   0.195444466341096  0.00240383495707027 1.07941071136204e-06 1.39360668914855e-07 1.08681355126824e-06 2.88222194115429e-06
   0.197840897304898  0.00243346330842289 1.02559154685704e-06 1.36616350641538e-07 1.10170387796524e-06 2.79301411085654e-06
   0.200245892421012  0.00246250860362916 9.91636238281166e-07 1.33903996637853e-07 1.11274644907156e-06 2.70874195476901e-06
   0.202641954422932  0.00249194258754795 1.12391547607479e-06 1.31071544797748e-07 1.11057362446467e-06 2.62965314493437e-06
    0.20504949627033  0.00252101916983201  1.1698108652879e-06 1.28081106913238e-07 1.09464329664549e-06 2.55474525007073e-06
    0.20744226058531  0.00255058391473268 1.31438947570336e-06 1.25060344929962e-07  1.0711030995639e-06 2.48451802026947e-06
   0.209840683473068   0.0025800130691876 1.14032404464521e-06 1.22129022523467e-07 1.04898506738744e-06  2.4180633598149e-06
   0.212238902406895  0.00260885535507234 8.01563256137156e-07 1.19435906907931e-07 1.03751462137623e-06 2.35530256171812e-06
   0.214636916479693  0.00263864028466887 1.05723025405361e-06 1.17075163917119e-07 1.04314046645661e-06 2.29598108282216e-06
    0.21703474693528  0.00266744114869016 1.10394009472059e-06 1.15071444933202e-07  1.0681014735859e-06 2.23987764479494e-06
   0.219444044233581  0.00269707688489823 1.12811152575743e-06 1.13370292051058e-07 1.11030422402704e-06 2.18653568422495e-06
   0.221850213969216  0.00272611429428329   1.153902661255e-06 1.11880126932174e-07 1.16331332232023e-06 2.13609875617118e-06
   0.224235781202034  0.00275543287559296  1.3413032196552e-06 1.10479478240979e-07 1.21809626044307e-06 2.08871720363037e-06
   0.226644453792659  0.00278483675777524 1.29918006874068e-06  1.0901420212237e-07 1.26660398525449e-06 2.04336113308282e-06
   0.229041270003763  0.00281403621990291 1.46844844356582e-06 1.07403642395185e-07 1.30039187326638e-06 2.00055308175074e-06
   0.231440771682372   0.0028433634811153  1.3376630855265e-06 1.05579277455863e-07 1.31476968579996e-06 1.95987827114535e-06
   0.233842989103048  0.00287238999670241 1.29385999701836e-06  1.0352872532955e-07 1.30819454925913e-06 1.92121092170204e-06
   0.236242071979238  0.00290213267968807 1.18158990596714e-06 1.01290119385391e-07 1.28274275401796e-06 1.88452297321287e-06
   0.238640940483953  0.00293070811737696 1.20112367803397e-06 9.89297458915012e-08 1.24344723798728e-06 1.84964950096699e-06
    0.24103959684554  0.00296043775098362 1.16801103823793e-06  9.6537973659967e-08 1.19726281726749e-06 1.81655750602422e-06
   0.243432191516308  0.00298937493305846 1.13570733527161e-06 9.42210020034101e-08 1.15223808980154e-06 1.78578626651088e-06
   0.245839129081631  0.00301854551427575 1.18142598318384e-06 9.20561023607723e-08 1.11573906723999e-06  1.7590460471687e-06
   0.248234198623864  0.00304787799163726 1.14696832897821e-06 9.01137802297748e-08 1.09207639127526e-06 1.73917058148451e-06
   0.250640683398056  0.00307700556890745 9.60955816375853e-07 8.83444123862166e-08 1.07891625482512e-06 1.72616237783517e-06
