# intensity: 1
# background: 0
#           Q (1/A)             dQ (1/A)                    R                   dR               theory              fresnel
          0.00877296 8.57369676736154e-05  0.00321720963174469 0.000194777822641897  0.00321230168383616 1.17154634678734e-05
           0.0100889 9.85973994514066e-05  0.00244075005754565 0.000149966531797817  0.00253124698634542 6.72071719691771e-06
           0.0114048 0.000111457409223373  0.00207931998502093 0.000118810431572411   0.0020380088271043 4.12494133028825e-06
           0.0127208 0.000124318361121249  0.00158392203445061 9.68220399238803e-05  0.00168882945295068 2.66932850261936e-06
           0.0140367 0.000137178296537108  0.00141213780254105 8.07104501925224e-05   0.0014324735588963 1.80262856667695e-06
           0.0153526 0.000150038188692536  0.00117446883240431 6.85371899510083e-05  0.00123853953797873 1.26072650545428e-06
           0.0166685 0.000162898033531676  0.00115246435011409 5.91024310748479e-05  0.00108811665740438 9.07941996060138e-07
           0.0179845 0.000175758804258743 0.000922819195821136 5.16300199133906e-05 0.000968925562745776 6.70322688425228e-07
           0.0193004 0.000188618542293017 0.000947963372543142 4.56025419485646e-05 0.000872740748869155 5.05591030355039e-07
           0.0206163 0.000201478220842578 0.000823843800493616 4.06612798756324e-05 0.000793849679636455 3.88485006191813e-07
           0.0219322 0.000214337835851184 0.000748387868662629 3.65572148848313e-05 0.000728386241326387  3.0339913458079e-07
           0.0241253 0.000235769723821315 0.000659766355580806 3.10883682527551e-05 0.000640964155589726 2.07309035010382e-07
           0.0263185   0.0002572023824813 0.000572135050831508 2.68556959695189e-05 0.000572931920517851 1.46416788204652e-07
           0.0285116 0.000278633838586312 0.000535885814661505 2.35002562397511e-05 0.000518682277174828 1.06327927661963e-07
           0.0307047 0.000300065050592837 0.000454976232583172 2.07822718474915e-05 0.000474353194446314 7.90664578325808e-08
           0.0328977 0.000321495022526369 0.000408220862613183 1.85397212582534e-05 0.000437336037860447 6.00084643019344e-08
           0.0350908 0.000342925690002228 0.000423702099518673 1.66595634067054e-05 0.000405813271601609 4.63610323539818e-08
           0.0372838 0.000364355079865535 0.000384602250418116 1.50614491833465e-05 0.000378497557293117 3.63821363440656e-08
           0.0394768 0.000385784150525367 0.000359806477968729 1.36865360018013e-05 0.000354451622948294 2.89492219495877e-08
           0.0416698 0.000407212883196571 0.000335611252735769 1.24911040476429e-05 0.000332985342219293  2.3321113641244e-08
           0.0438627 0.000428640281974596 0.000310095689419614 1.14426898786363e-05 0.000313616131106234 1.89967524301814e-08
           0.0473713 0.000462922940267723 0.000291377666093622 1.00079987526977e-05 0.000285954395438249 1.39647686980884e-08
           0.0508798 0.000497203583214105 0.000273582613458106 8.80762417045606e-06 0.000261414581992129 1.04939915548962e-08
           0.0543882 0.000531482133943782 0.000235736410553255 7.78922338685901e-06 0.000239279713507778  8.0375884512144e-09
           0.0578966 0.000565759492576199 0.000220837205567715 6.91495902350452e-06 0.000219035107577987 6.25965747320563e-09
           0.0614048  0.00060003362821969 0.000197275833225651 6.15717486585741e-06 0.000200332476043554 4.94730609319796e-09
           0.0649128 0.000634304464109654  0.00017209984146523 5.49515902850206e-06 0.000182932985030816 3.96159015683727e-09
           0.0684208 0.000668573877234887 0.000158569338792251  4.9130580488327e-06 0.000166672267563633 3.20958770434031e-09
           0.0719286 0.000702839836928123 0.000153915218054996 4.39856332581714e-06 0.000151439431374528 2.62787542699122e-09
           0.0754363  0.00073710324321804 0.000139050805793547 3.94190867440878e-06 0.000137157377716097 2.17218983138026e-09
           0.0789438 0.000771363042478343 0.000126214157101387 3.53524160089629e-06   0.0001237735980956 1.81114915021148e-09
           0.0824512 0.000805620134643632 0.000115519384534084 3.17215455226298e-06 0.000111250414198075 1.52210481344916e-09
           0.0859585 0.000839874442811113  9.5103563499299e-05 2.84709747390078e-06 9.95420107657253e-05 1.28849455271089e-09
            0.087712 0.000856999430181491 9.43083637588521e-05  2.6976254393223e-06 9.40027498802248e-05  1.1885140303947e-09
            0.091219 0.000891247953378265 8.28088173738931e-05 2.42234244299134e-06 8.35411004988726e-05 1.01602327533802e-09
           0.0947258 0.000925492523961103 7.30356536140608e-05 2.17524818450066e-06 7.38439623188986e-05 8.73727050190256e-10
           0.0982324 0.000959733065178519 6.50866166272634e-05 1.95360101652169e-06 6.49106937937514e-05 7.55498297207949e-10
            0.101739  0.00099397145301271 5.83483510031722e-05 1.75481579158841e-06  5.6720118899544e-05  6.5660756983197e-10
            0.105245  0.00102820175250849 4.94985638886579e-05 1.57668212336934e-06 4.92508498316633e-05 5.73393506236498e-10
            0.108751  0.00106242974511247 4.19017094831879e-05 1.41719766330531e-06 4.24761753719096e-05 5.02953995250279e-10
            0.112257   0.0010966553536645 3.61847818676059e-05 1.27462466606275e-06  3.6368092725988e-05 4.43006366102952e-10
            0.115762   0.0011308687400236 3.13981002387903e-05 1.14744620114802e-06 3.08974514490966e-05 3.91743491043356e-10
            0.119268  0.00116508934960268 2.65961137730479e-05 1.03420402483337e-06 2.60280471619983e-05 3.47673924583141e-10
            0.122773  0.00119929758402514 2.02306821662328e-05 9.33705802710209e-07  2.1727480217795e-05 3.09640825907698e-10
            0.126278  0.00123350312701843 2.08741046390065e-05 8.44777774180602e-07 1.79574418944689e-05  2.7666905290298e-10
            0.129782  0.00126769614344653 1.45067873859615e-05 7.66389817835764e-07 1.46807237453943e-05 2.47979084290109e-10
            0.133287   0.0013018960725967 1.05234108557477e-05 6.97522869569129e-07 1.18566215181576e-05 2.22906714020196e-10
            0.136791  0.00133608332224885 8.93382073773094e-06  6.3730453402711e-07  9.4476561697336e-06 2.00930347766516e-10
            0.140295  0.00137026757298047 8.00628314575968e-06 5.84849961348255e-07 7.41410759138304e-06 1.81596751232798e-10
            0.143798  0.00140443899299659 5.16485313738675e-06 5.39350362714435e-07 5.71821047234807e-06 1.64538143187917e-10
            0.147302  0.00143861701473919 4.32774338518938e-06 4.99995772009618e-07 4.32184995385327e-06 1.49432288772029e-10
            0.150805  0.00147278205283279 2.65724778863962e-06 4.66017169894275e-07 3.18673448332293e-06 1.36024467259664e-10
            0.153432  0.00149840122771363 3.51516426555333e-06 4.43733496295279e-07 2.49426590407911e-06 1.26945380258947e-10
             0.15781  0.00154109238113463 2.00130282068385e-06 4.11723880509705e-07 1.59274796348913e-06 1.13434112368572e-10
            0.162187   0.0015837683784041 6.13096779001649e-07 3.84966427318979e-07 9.46686246195039e-07 1.01676029588288e-10
            0.166564  0.00162643882017072 3.78098668946144e-07 3.62491462382387e-07  5.1147540896137e-07 9.14027122176976e-11
            0.170941  0.00166910355507407 -1.78021737819454e-08 3.43380742608459e-07  2.4045565078202e-07 8.23947477797346e-11
            0.175317  0.00171175268617424 5.65800045438501e-07 3.26873396151826e-07  9.3100269850529e-08 7.44713360124861e-11
            0.179693  0.00175439581012229 -4.26180443971544e-07 3.12348595486912e-07 3.48455335111596e-08 6.74778677602971e-11
            0.184068  0.00179702303265721 2.84187154034954e-07 2.99327233810723e-07 3.70051956914755e-08 6.12877227279856e-11
            0.188442  0.00183963420642077 -1.69215620389361e-07 2.87442750056647e-07 7.63391445226677e-08 5.57925823205524e-11
            0.192816  0.00188223892383246 3.11643784032062e-07 2.76422658570716e-07 1.34650906139973e-07 5.08997428346887e-11
            0.197189  0.00192482729493714 4.54762955414222e-07 2.66076744793538e-07  1.9822236702127e-07 4.65326375557078e-11
            0.201562   0.0019674089091114 6.60396960113544e-09  2.5626944823809e-07 2.57300456657375e-07  4.2624007619388e-11
            0.205934  0.00200997387939359 3.81870210432875e-07 2.46914513356165e-07 3.05464369104558e-07 3.91180477499033e-11
            0.210305  0.00205252205858789 4.32891118230612e-07 2.37955729823843e-07  3.3909490018855e-07  3.5965942657325e-11
            0.214676  0.00209506303127677 6.30020346332769e-07 2.29357655549816e-07 3.56806087605351e-07 3.31250301082968e-11
            0.219046  0.00213758691527694 1.13908078493251e-08  2.2110398412043e-07 3.58909980187376e-07 3.05597183499934e-11
            0.223416  0.00218010329175235 2.38126381028204e-07 2.13183905402958e-07 3.46960820538916e-07 2.82380003302598e-11
            0.227785  0.00222260228182847 3.17254621093222e-07 2.05595455273554e-07 3.23334757050594e-07 2.61330976287233e-11
            0.232153  0.00226508373839712 5.34973909954772e-07 1.98336827831771e-07 2.90868724580938e-07 2.42211359840174e-11
             0.23652  0.00230754751440005 3.60611456684214e-07 1.91406247041378e-07 2.52560856076819e-07 2.24812544058387e-11
            0.240887  0.00235000318381663 9.10305838474374e-08 1.84799155803708e-07 2.11323301045184e-07 2.08948311336807e-11
            0.245253  0.00239244087487268 2.23363229012671e-07 1.78512044143853e-07 1.69834029845132e-07 1.94462239865554e-11
            0.249618  0.00243486044053831 1.31972340799494e-07 1.72537411059501e-07 1.30391006568393e-07 1.81212965078389e-11
            0.253982  0.00247726173382167 -1.81777123717572e-07 1.66873156200543e-07 9.63125823393928e-08 1.69075764649177e-11
            0.258346  0.00251965432091536 2.72593831522417e-07 1.61547097566713e-07 7.70749429106735e-08 1.57937910374291e-11
