# intensity: 0.984884506614088
# background: 8.08866527855823e-07
#           Q (1/A)             dQ (1/A)                    R                   dR               theory              fresnel
 0.00836156948553265 0.000272105996597108         0.4016287098      0.0094023545574    0.359895079137329    0.984872640073672
 0.00936276109892036 0.000283268710904954         0.3487332021      0.0079094173115    0.322276994399223    0.891647103138419
  0.0103628732387369 0.000294981358855549        0.30338417742      0.0068011143077    0.278635286075466     0.24702963490515
  0.0113629843919769 0.000306266940679965        0.26801013736      0.0060915710814    0.239787512579522   0.0824703831517596
  0.0123630930919413 0.000317613511960965        0.22888898497       0.005090309601    0.205446941587114   0.0458683716511633
  0.0133631998336298 0.000329311146209034        0.19476787376      0.0043117271279    0.175271398246753    0.028689426822381
  0.0143644015721514 0.000341021567420576        0.15866321561      0.0035786342254    0.148867955085643   0.0192238754643062
  0.0153634068121795 0.000353003815532017        0.13405109198      0.0029723455752    0.125950307741862    0.013524648862242
   0.016363506731041 0.000364547875766725        0.11502702286      0.0025452564711    0.106078877049475  0.00985866947170632
  0.0173636040576271 0.000376400921080199       0.093681335965      0.0021191112551   0.0889410849137021  0.00739196553396697
   0.018363698635938 0.000388436359505131       0.076543756006      0.0017072569104   0.0742208958938218  0.00567109346594853
  0.0193637903059738 0.000400293040959416       0.063206532084      0.0014076934013   0.0616280889259502  0.00443485132559573
  0.0203638789097347 0.000412285990972775       0.051157742484      0.0011365147283   0.0508997867980297  0.00352496659667087
  0.0213628667425522 0.000424134779289357       0.042023638677     0.00094334751011   0.0418082341794123  0.00284200511172572
  0.0223607621436041 0.000436147255298462       0.032407697859     0.00074787880191   0.0341380856704948  0.00232015786462292
   0.023363023297832 0.000447687956588299       0.026487195897     0.00062975151315   0.0276644367800848  0.00191310386678459
  0.0243619939760871 0.000459504228538749       0.020967310445     0.00050615374808   0.0222730861271365  0.00159382304216891
  0.0253631699430091 0.000471636235663819       0.016387513533     0.00036552711632   0.0178658854050922  0.00134350402686355
  0.0277613531469302 0.000500438918331605      0.0087311996032     0.00023062263294   0.0101476209672874 0.000916785154036018
  0.0301617115267218 0.000529368502366969      0.0043996670592     0.00012956571146   0.0054043776619515 0.000644672667903025
     0.0325620210326 0.000558498184819471      0.0020069529192     7.0203832651e-05  0.00270989470318038 0.000467205764979772
  0.0349634090743276 0.000586970486384079     0.00099525897654     4.2714528274e-05  0.00131348127679775 0.000347201082623407
  0.0373625718224823 0.000616509012006659     0.00056159736712       2.87205977e-05 0.000695146376126652 0.000263702159881954
  0.0397638912380348 0.000645111318394743     0.00056608727038     2.7305281924e-05 0.000501920413619902 0.000203986105431913
   0.042162983658621 0.000674341465983348     0.00059790220777      2.666058467e-05 0.000507869538446418 0.000160411776822627
    0.04456094042137 0.000703674263267679     0.00062238554627     2.6145914873e-05   0.0005764371386203 0.000127975793317666
  0.0469610484099274 0.000732762127943902     0.00061898946639      2.463121512e-05 0.000634600219150293 0.000103386740180329
  0.0493633112083785 0.000762299823300823     0.00058360049695     2.2741491675e-05 0.000651328886644439 8.44678240109947e-05
  0.0517633308558093 0.000791046565718808     0.00049670750199     1.9951242335e-05 0.000621963818228697 6.97405181387434e-05
    0.05416330540533 0.000820605207617018     0.00038926931278     1.6329139983e-05 0.000556307461796544 5.81254237513778e-05
  0.0565632285709596 0.000849653084949386     0.00029586941027     1.3381038151e-05  0.00047002347995044 4.88630941405529e-05
  0.0589641963180085 0.000879159240206512     0.00023767047704     1.1404683433e-05 0.000378883388103333 4.13998801829393e-05
  0.0613629198815493 0.000907916429799104     0.00016832010189     8.9115933011e-06 0.000295613936813411  3.5338930419845e-05
  0.0637615875165157 0.000937583627420562     0.00011655251235     7.0820907145e-06 0.000228005879823523  3.0370815736612e-05
  0.0661623872726373 0.000966760528366623     8.0709656404e-05     5.7337815122e-06 0.000179041623679398 2.62631872041015e-05
  0.0685609364351776 0.000996229198594254      8.263949132e-05     5.6082601083e-06 0.000147793408063037 2.28490494866372e-05
  0.0709616132302874  0.00102566616261656     7.7243796037e-05     5.2569974438e-06  0.00013043954451505 1.99872464217714e-05
  0.0733600351664352  0.00105451425816331     7.7070020336e-05     5.0142726598e-06 0.000121960163505354 1.75779802051126e-05
  0.0757616830337932  0.00108429934104067     8.0946312109e-05     4.9114212701e-06 0.000117303563134382  1.5533529781467e-05
  0.0781610613635528  0.00111322923087099     7.9832381248e-05     4.7179366211e-06 0.000112440813443856 1.37932515059217e-05
  0.0805614658904445  0.00114288446697081     7.8924020153e-05     4.5499866375e-06 0.000104875103964164 1.23024397955704e-05
  0.0829617968542305  0.00117212547152878     8.0309950158e-05     4.4748530711e-06 9.37962309147937e-05 1.10198595609055e-05
  0.0853620572918958  0.00120120838563612     6.8639660873e-05      4.077513881e-06 7.98373759593549e-05 9.91153814584661e-06
  0.0877633264600216  0.00123071532309541      5.314148699e-05     3.5047080495e-06 6.45972023640527e-05 8.94939688305938e-06
  0.0901645212727429  0.00126024316472964     4.4878404993e-05     3.1518467031e-06 5.00828676072358e-05 8.11122936385669e-06
  0.0925623517174733  0.00128963710742349     2.8172930112e-05     2.6105570719e-06 3.81506732827913e-05 7.37928146235466e-06
  0.0949622819998898   0.0013187635055155     2.1553178382e-05     2.3669677387e-06 3.00316595849057e-05 6.73639743480798e-06
  0.0973621255712667  0.00134844034510578     1.8630987895e-05     2.2600073625e-06 2.61822649419389e-05  6.1703213239343e-06
  0.0997618802406161  0.00137732623236015     1.3469351256e-05     2.1350265388e-06 2.62177274002744e-05 5.67030243888847e-06
    0.10216154381895  0.00140721160248742     1.9322310283e-05     2.1813318009e-06 2.90794557619094e-05 5.22731960266066e-06
   0.104563308426155  0.00143609875050259     2.3712048656e-05     2.1702368836e-06 3.33162383443415e-05 4.83336678041351e-06
   0.106962783156195  0.00146553452890375     3.2707550817e-05     2.2838533963e-06 3.73995901957001e-05 4.48271279804562e-06
   0.109364354362528  0.00149547277922279     2.9902589864e-05     2.1496720916e-06 4.00522831587866e-05 4.16920372936281e-06
   0.111761447866294  0.00152439628406565     3.5065901159e-05     2.2176868031e-06 4.04454655481573e-05 3.88894767422695e-06
   0.114162806522179  0.00155386194004651     3.5720421305e-05     2.2053795414e-06 3.83153351384739e-05 3.63691062928231e-06
   0.116561887782025  0.00158309984344357     3.6065312362e-05      2.156110095e-06 3.39415941763673e-05 3.41035214261565e-06
   0.118963035477152  0.00161265489382849      3.171440916e-05     1.9754502977e-06 2.80113707033922e-05 3.20588261259792e-06
   0.121361901576868  0.00164174958956343     2.5684225449e-05     1.7800635851e-06 2.14601896772111e-05 3.02128981778377e-06
   0.123763925543532   0.0016714208120429     1.8363124821e-05     1.5783428366e-06 1.52204830264718e-05 2.85393234243705e-06
    0.12616256584304   0.0017002763189138      1.294198449e-05     1.4407877471e-06 1.00929487165361e-05 2.70231305946993e-06
   0.128562171124736  0.00172984051804595     7.5911845033e-06     1.3376035697e-06 6.56178870493078e-06 2.56444671345698e-06
   0.130962763398006  0.00175929775455398     9.9269725425e-06     1.3683739084e-06 4.78015252873454e-06 2.43885959987086e-06
   0.133362137789231  0.00178856275641311     8.0605212899e-06     1.2576221008e-06 4.57890863273351e-06 2.32436502772209e-06
    0.13576358633327  0.00181844748399195     1.1353376347e-05     1.2563798386e-06 5.54498514161116e-06 2.21966910554478e-06
   0.138162715453981  0.00184717196755197     1.4344857433e-05     1.2715227019e-06 7.13393288643677e-06 2.12394933847804e-06
   0.140561719704602  0.00187681233016668     1.7042382637e-05     1.2966890432e-06 8.79696625288629e-06 2.03622213237944e-06
    0.14296169112619  0.00190600678678592     1.4822443222e-05     1.2520421748e-06 1.00799516157171e-05 1.95566090441048e-06
   0.145361531767434  0.00193552605970342     1.5335260949e-05     1.2715393682e-06  1.0689620484706e-05 1.88160973415183e-06
   0.147763421419879   0.0019646576373727     1.4823167748e-05     1.1998371631e-06 1.05202013195536e-05 1.81339192813572e-06
   0.150161899209606  0.00199392437092556     1.3982750327e-05     1.1380946737e-06 9.64144889228516e-06 1.75059487510316e-06
   0.152560236629372  0.00202358242414267     1.0859774661e-05     1.0573856975e-06 8.24667650098598e-06 1.69263540759826e-06
   0.154960627369698  0.00205282448067565     1.0885288958e-05     1.0389905474e-06 6.59318306594234e-06 1.63902417180534e-06
   0.157360877949456  0.00208247919790219     6.8724240379e-06     9.8020695399e-07 4.94440356017284e-06 1.58942191426529e-06
   0.159760977128749  0.00211116318701505     5.0431817925e-06     9.7102490431e-07 3.51512378453417e-06 1.54347258808982e-06
   0.162163124137136  0.00214101377487014     3.4158233568e-06     9.1100449941e-07 2.44110026091973e-06 1.50082250599827e-06
   0.164561839125399    0.002169881690736     2.5501722396e-06     8.4953009167e-07 1.77269619212501e-06 1.46127776016288e-06
    0.16696149458305  0.00219954040143446     4.3528863278e-06     8.3885261389e-07 1.47856515278301e-06 1.42450598525297e-06
   0.169363187318985  0.00222876149403624     4.2590700973e-06     8.1738198204e-07 1.47361566525224e-06 1.39026109878312e-06
   0.171761443826198  0.00225782273287604     6.1746565714e-06     8.3782930617e-07 1.64522190688945e-06 1.35840916842632e-06
   0.174161723711529  0.00228750063237695     6.3055159683e-06     8.4677862271e-07 1.88106340933261e-06 1.32868596930332e-06
   0.176561843996174  0.00231666178124406     7.6188102475e-06     8.4408436032e-07 2.08907620685484e-06  1.3009473815601e-06
   0.178961812900049  0.00234617778832081     6.3835088069e-06     7.8328614607e-07 2.20972896659294e-06 1.27503686843615e-06
   0.181361617793279  0.00237512394571563     5.5729932005e-06     7.4176099219e-07 2.21851353568598e-06 1.25081120325616e-06
   0.183759066138975  0.00240476808246695     5.6262238799e-06     7.2399930528e-07 2.12113243464022e-06 1.22816140108535e-06
   0.186158536571288  0.00243341297769385     4.1268870039e-06     7.0523469676e-07 1.94398854583709e-06 1.20692679341618e-06
   0.188560005579561  0.00246328856939252      4.570257091e-06     7.1979044349e-07 1.72363465463054e-06 1.18700447481852e-06
   0.190962417414457  0.00249221685098588     2.6953083805e-06     7.0475594745e-07 1.49759348623891e-06 1.16830571541212e-06
   0.193362463732219  0.00252148609016137     4.7784725471e-06     6.8680895227e-07 1.29719305229494e-06 1.15076571656091e-06
   0.195761217211707  0.00255125944236798     3.7153814015e-06      6.439617364e-07  1.1430102129649e-06 1.13429178066494e-06
   0.198162001525587  0.00258011986965388     2.7019558213e-06     6.1464480157e-07 1.04429302367641e-06 1.11878534841372e-06
   0.200560414683609  0.00260990509214212     1.9641158124e-06     6.0057425299e-07  1.0006998062879e-06 1.10420779786368e-06
   0.202963001290442   0.0026387062942332     3.1025510113e-06     6.1583712995e-07 1.00352974437628e-06 1.09045264491893e-06
   0.205361044307033  0.00266827516229367     2.8064254463e-06     6.2795751492e-07 1.03947358460098e-06 1.07751328167427e-06
   0.207762181254099  0.00269730438646129     2.9392489117e-06     5.9290336985e-07 1.09287629272676e-06 1.06529337965279e-06
   0.210160919736546  0.00272664293237293     3.1987173568e-06     5.6759832703e-07 1.14800222724901e-06 1.05377189497609e-06
   0.212562767908065  0.00275588519474196     2.5079687328e-06     5.4482569859e-07 1.19137263599465e-06 1.04287667078609e-06
    0.21496223238509  0.00278520885061238     2.0774467905e-06     5.3581935764e-07  1.2129109642607e-06 1.03259070961448e-06
   0.217361478661501  0.00281456230441307     2.9614584817e-06     5.4860917614e-07 1.20744164095685e-06 1.02286472583288e-06
   0.219762734019193  0.00284334610807604     2.5921288337e-06     5.6014283555e-07 1.17500091427262e-06 1.01365402413804e-06
   0.222161578783644  0.00287316604488342     2.5217644041e-06      5.397291372e-07 1.12085657733303e-06 1.00494242761135e-06
   0.224560240407042   0.0029018554612004     1.9748703789e-06     5.0932069683e-07 1.05446041173382e-06 9.96689642700017e-07
   0.226960883111155  0.00293162774916449     1.6863883581e-06      4.898082219e-07 9.87761867279649e-07 9.88860533253185e-07
   0.229361296234206  0.00296059066420859     2.3000098253e-06     4.8770972897e-07 9.33214560966076e-07  9.8143573732193e-07
   0.231761519205675  0.00298973953581017     1.4163617693e-06     4.8303836941e-07 9.01187250926591e-07  9.7439049444317e-07
   0.234163694856719  0.00301903424747052     1.6054865557e-06     4.9418375205e-07 8.97937429784316e-07 9.67695923960695e-07
   0.236561302615088  0.00304818946540422      1.590887988e-06     4.8491781003e-07 9.24217828703294e-07 9.61348219694012e-07
   0.238961951018091   0.0030775386136538     2.2303842651e-06     4.6206141819e-07 9.75157038564113e-07 9.55307103181837e-07
   0.241361297754617  0.00310642755732792     2.1925113145e-06     4.4288624953e-07 1.04093970651456e-06 9.49565230851177e-07
   0.243762608409351  0.00313593389321907     2.3961478251e-06     4.3580582137e-07 1.10899012409565e-06 9.44097804778784e-07
   0.246160405568906  0.00316467204006284     2.6656051031e-06     4.3854707503e-07 1.16611520004358e-06 9.38900740109412e-07
   0.248559089771758   0.0031943884182056     2.7017092821e-06     4.4703776346e-07 1.20175755977922e-06 9.33972938489483e-07
   0.250959709792305  0.00322309940169957     2.7031657513e-06      4.519335761e-07  1.2109177865527e-06 9.29417629038666e-07
   0.253360119370917  0.00325254502084952     2.0362984604e-06     4.2345305178e-07 1.19813157500681e-06 9.25547892030585e-07
   0.255760274678228  0.00328188403766281     2.9622033634e-06     4.1105909399e-07 1.17601344643376e-06 9.22662746565333e-07
   0.258160194303972  0.00331071057660079     2.7872517345e-06        3.9893869e-07 1.15509919411343e-06 9.20743382961818e-07
