# intensity: 0.993225468883673
# background: 9.34585813159606e-08
#           Q (1/A)             dQ (1/A)                    R                   dR               theory              fresnel
 0.00778725952544488   8.227359513137e-05         1.0028149857       0.026680758399     0.99278137944825     0.12185826320976
 0.00828621851990663 8.86050726854523e-05        0.99042751589       0.019581769898    0.993225562342252    0.105466668908196
 0.00878737392945158 9.46001281694148e-05        0.97526573967       0.017477479889    0.993225562342256   0.0933495521425393
 0.00928743061964407 0.000100634705663504        0.97733936694       0.018630663038    0.993225562342254   0.0828068037241389
 0.00978967988133008 0.000106933334071026         1.0055662047       0.021904635702    0.993225562342251   0.0735601372311049
  0.0102875428772073 0.000113152998142967         1.0072722482       0.016753672187    0.993225562342252   0.0655358240330538
  0.0107875990582782 0.000119318197902512         1.0092503215       0.015200421412    0.993225562342254   0.0584373825930761
  0.0112865573463856 0.000125220389007988        0.99863882882       0.016183347089    0.993225562342255   0.0522469621067921
  0.0117866179813589   0.0001314561570425         1.0108320934       0.018959394908    0.993225562342254   0.0467986073573923
  0.0122877623462465   0.0001373709343268          1.001571203       0.014678135488    0.993225562342255   0.0419893385426043
  0.0127856231191982 0.000143857781114086        0.99606787558        0.01306638867    0.993225562342254    0.037773128108593
  0.0132856756625284  0.00014963361417388        0.99570101871       0.013976953447    0.993225562342255   0.0340265230866571
  0.0137879225633496 0.000156074394199801        0.96492386403       0.015909163867    0.947334584500447   0.0306956815465669
  0.0142879740326356 0.000161839056343001        0.29853729964      0.0045234323149    0.294517459208227   0.0277523471755137
  0.0147902185074863 0.000168345929759191       0.091041665569      0.0017665984154   0.0960196945528066   0.0251261721029436
  0.0152880765605862 0.000174136654905374       0.054107259285      0.0012725959345   0.0574567957571945   0.0228074170252729
  0.0157859340150714 0.000180504663000526       0.044778230214      0.0011584667716   0.0449449756824359   0.0207376708037707
  0.0162881766683741 0.000186250435989384       0.041634676484      0.0010202702205   0.0407071382317424   0.0188722304033685
  0.0167882264179574 0.000192627793444354       0.040434400569     0.00095620602846   0.0395844664814449   0.0172094774042476
  0.0172882741969992 0.000198624321335585       0.040671971574     0.00095498391888   0.0395828674280144   0.0157187271393118
   0.017788322597501 0.000205100814682647       0.039160876085     0.00095840589537   0.0398718803964914    0.014379505161983
  0.0182861767430971 0.000211312496646875       0.040394590233     0.00090057339059   0.0400790761280942    0.013184575537153
  0.0187884159598817 0.000217285972628428       0.038694189652     0.00084823657128   0.0400653314732634    0.012096426852465
  0.0192884608817605  0.00022346144221185       0.040015076151     0.00086672302786   0.0397820129532121   0.0111153107067059
  0.0197885063470993 0.000229438940566388       0.039655505957     0.00089231186217   0.0392172894817973   0.0102282664078169
  0.0202885510298974 0.000235983501654321       0.039110136541     0.00080732764561    0.038388759082719  0.00942510611770507
  0.0207874979363793 0.000241761780512553       0.037679634734     0.00076364222052   0.0373285162694858  0.00869825844116873
  0.0212886366568703 0.000248219173677454       0.035760058898     0.00074326382574   0.0360626203470912  0.00803528964018157
  0.0217886788700459 0.000253871054539533       0.032458466074     0.00071594149805   0.0346340577875063  0.00743363332182408
  0.0222887189126798  0.00026027340167727       0.032977038255     0.00067252507815    0.033073928126449   0.0068856777591388
  0.0227865645550738 0.000266017465221343       0.031298137563     0.00063459663976   0.0314217786209588  0.00638797832812304
  0.0232866028175888 0.000272531465793682        0.02940670832     0.00061427693729   0.0296922921928256  0.00593140600181132
  0.0237866427735649 0.000278365486875587       0.027986113035     0.00061274959539   0.0279194452796768  0.00551380619153922
  0.0242877765579038 0.000284646672741868       0.026296060191     0.00054825620247   0.0261240331804944  0.00513102066026638
  0.0247878138098161  0.00029060406920589       0.024843283769     0.00036923654869   0.0243538688331747  0.00479028334656816
  0.0271881909749417 0.000320472054441112       0.015863804636     0.00034611137862    0.016347715022936  0.00347017941427693
  0.0295885456069997 0.000350143897196395      0.0097873889491     0.00024667846591   0.0100297171984096  0.00256148610687476
  0.0319888709879838 0.000379225951346748      0.0059986173617      0.0001780755475  0.00578903294772349  0.00192788971900158
  0.0343880729216165 0.000408900897086824      0.0035886562089     0.00012759627505  0.00342309711722353  0.00147659271432933
  0.0367872435109949 0.000438125469266534      0.0023939774203     9.6570713685e-05   0.0024289543187401  0.00114860128589609
  0.0391863779571128 0.000467883847242769      0.0022195595028     8.6250198048e-05  0.00224232639766167 0.000905997421844332
   0.041586570155513  0.00049663004477697      0.0024497482871     8.4239715914e-05  0.00238375396241853 0.000723582593176944
  0.0439867334028408 0.000526658461643041      0.0023968558381     7.8414947515e-05  0.00252863818023376 0.000584511735413636
  0.0463879525668056 0.000556160711942657      0.0024989168421     7.4609860737e-05  0.00251557906617043 0.000477028024899715
  0.0487869283352161 0.000585673026220101      0.0023527378668     6.8107164389e-05  0.00231564984570894 0.000393065831286101
  0.0511858648663621 0.000615405074763918      0.0019551199801     5.8407370595e-05  0.00198281128325757 0.000326685968075437
  0.0535869504682207 0.000644431632807415      0.0015506561325     4.8705509304e-05  0.00160339432461418 0.000273627848998386
  0.0559879819121455 0.000674536650125408      0.0012425572307      4.136502222e-05  0.00125776620923851 0.000230868052353003
  0.0583878714749825 0.000703428730225999      0.0010072067616     3.5329379133e-05 0.000995956837114752 0.000196119779831873
  0.0607855085281774 0.000733243774986434     0.00083064976483     3.0653477276e-05 0.000831275086089311 0.000167669297228155
  0.0631885704316386 0.000762599070659582     0.00070148643546     2.6738091046e-05 0.000746618014495798 0.000144128243681226
  0.0655871940337747 0.000792017183501246     0.00074364232659     2.6218193221e-05 0.000709326148577188 0.000124596329009669
  0.0679879480496555 0.000821282182175407     0.00064851077462     2.3483852673e-05 0.000684548083880523 0.000108240833151735
  0.0703864498493594 0.000851061762120284     0.00061190144034      2.154090917e-05  0.00064716269744311 9.44879532606387e-05
  0.0727870827981664 0.000880688085170158     0.00058158536549     2.0049147586e-05 0.000586618149185656 8.28370468063012e-05
  0.0751876440599987 0.000909939596328375     0.00049182366627     1.7816302173e-05 0.000506400925237036 7.29242402198569e-05
  0.0775881366658633  0.00093974506198388     0.00042882697909     1.5858495154e-05 0.000418967045776062 6.44485874344748e-05
  0.0799874633227856 0.000968601335058117      0.0003255240866     1.3406064075e-05  0.00033919319451927 5.71706620095523e-05
  0.0823878129836111 0.000998550863982488     0.00026941524487     1.1697546424e-05 0.000278399549970932 5.08882462174531e-05
  0.0847880871744506  0.00102752882952207     0.00025871674325     1.1054365615e-05 0.000241148493442397 4.54448492977894e-05
  0.0871871922570729  0.00105716104557876     0.00023811376756     1.0152315877e-05 0.000224687033699553 4.07120984495884e-05
  0.0895873140118484  0.00108700001308629     0.00023087942158     9.5237970252e-06 0.000220993515239921 3.65780245199257e-05
   0.091987348738604    0.001116306258697     0.00023269386793     9.2666966012e-06 0.000220219172190315 3.29557695787584e-05
  0.0943872994703485  0.00114567081759387     0.00021138803398     8.5407123321e-06 0.000214041545362853 2.97713422178512e-05
  0.0967871640160748  0.00117515520565575      0.0002051940177     8.0673178838e-06  0.00019798284858224 2.69628603814609e-05
  0.0991869401847758  0.00120483237734772     0.00016809571885     7.0632087828e-06 0.000172115820181186 2.44784007878566e-05
   0.101587721721218  0.00123395922497766     0.00015200019018     6.4816394144e-06 0.000140210473189158 2.22731969956041e-05
   0.103988412964807  0.00126374041725761     0.00011818195735     5.6531147819e-06 0.000107929853879838  2.0311419069465e-05
   0.106387910769566  0.00129270031419196     8.6831130713e-05     4.7407480793e-06 8.06937898608141e-05 1.85623521023085e-05
    0.10878731142927  0.00132229319821886     5.9744688206e-05     3.8970322875e-06 6.19655143020571e-05 1.69981685447334e-05
    0.11118662320395  0.00135181829743304      5.207929617e-05     3.5766599763e-06 5.25146055937182e-05 1.55959544712277e-05
   0.113588006531927  0.00138134874797977     5.3036748516e-05     3.5263670895e-06 5.05768434038933e-05 1.43349249225494e-05
   0.115986017542328   0.0014113555699927     5.1074899031e-05     3.3652183835e-06 5.27797457961615e-05 1.32009075360364e-05
   0.118385004911808  0.00144008363044664     5.3243259768e-05     3.2635314014e-06 5.54025741061006e-05  1.2177006770265e-05
   0.120788269294145  0.00146981033140239     5.4718022207e-05     3.1845521375e-06 5.55224929845334e-05 1.12494845454503e-05
   0.123188133428351  0.00149896289876967     5.3305374329e-05     3.0807654235e-06 5.17229218131318e-05 1.04102836937118e-05
   0.125588985912307  0.00152865702954819     4.5914290983e-05     2.8370595611e-06 4.42219433743371e-05 9.64815489887242e-06
   0.127986438047239  0.00155761164203766     3.4545680546e-05     2.4413303553e-06 3.45025109747585e-05 8.95597394940802e-06
   0.130387058741383   0.0015870512096977     2.5127712067e-05     2.1086311778e-06 2.45534449199697e-05 8.32450894488384e-06
   0.132789747680588  0.00161670884270212     1.6463225641e-05     1.8176320813e-06 1.62211083318587e-05 7.74775860774886e-06
   0.135186838920253  0.00164614123338403     1.0581688791e-05     1.6203411969e-06 1.06539810647654e-05  7.2217749407911e-06
   0.137587095239917   0.0016758832997091     9.4928118862e-06     1.4912648692e-06  8.0288593179859e-06 6.73956362922722e-06
   0.139986129989564  0.00170475997451715     8.6148850931e-06     1.4157554234e-06 7.74191729061291e-06 6.29761648901269e-06
   0.142387228094785  0.00173467365369313     8.8192348953e-06     1.4065919856e-06 8.71131491876754e-06 5.89144702496596e-06
   0.144790381056077  0.00176336442948411       6.93876563e-06     1.3750226761e-06 9.80054804015779e-06 5.51762823217891e-06
   0.147187932365755  0.00179319420294048     9.0220388858e-06     1.3312638373e-06 1.01664363884056e-05 5.17421116342205e-06
    0.14958862743685  0.00182262406646876     9.0450621379e-06     1.2694199143e-06 9.45414505265298e-06 4.85712581769358e-06
   0.151986997391972  0.00185179448594578     7.0736206646e-06     1.1924310635e-06 7.78467474606446e-06 4.56464650783521e-06
   0.154387424023531  0.00188141071806893     4.9052381624e-06     1.1473169675e-06 5.59890143890302e-06  4.2940381995931e-06
   0.156788793356141  0.00191087829133073     3.1194251551e-06     1.0373746702e-06 3.44324420230994e-06 4.04348390335865e-06
   0.159187837622423  0.00194036808105226     5.6397645564e-07     9.1714076318e-07 1.76359016363913e-06 3.81155518811548e-06
   0.161588927955802  0.00196951853718092     5.7599798845e-07     9.1115353472e-07 7.70903591531542e-07 3.59619954995634e-06
   0.163989859754551  0.00199912603582817    -1.1383710872e-07     9.2294990906e-07 4.34776140691453e-07 3.39621630454214e-06
   0.166388460296403   0.0020279019465403     2.3844022508e-07     8.8970501943e-07 5.42764751654995e-07 3.21046515382582e-06
   0.168788003259572  0.00205771420340303     8.9031565345e-07     8.4886118038e-07 8.17854195134093e-07 3.03752234788399e-06
    0.17118849109434  0.00208667963534554     3.2712568326e-07     8.1322285305e-07 1.02764341875562e-06 2.87633703610102e-06
   0.173587711417944  0.00211612854574836     1.7592417164e-08     8.1811523502e-07 1.05260437518239e-06 2.72610487282721e-06
   0.175985700100329  0.00214607539534588     7.6574609122e-07     8.1239125128e-07 8.98278966470213e-07 2.58594104879938e-06
   0.178385687190784  0.00217501613210361     9.0131229191e-07     7.5689594818e-07 6.56795947602757e-07 2.45486869992854e-06
   0.180786629743441  0.00220467954817177     1.1172606899e-06     7.3471932141e-07 4.45494379862756e-07 2.33225008248782e-06
   0.183186305844759  0.00223372479444553     6.8181884721e-07     7.2937636225e-07 3.48599059318848e-07 2.21754061638134e-06
   0.185589080951969  0.00226322615978485     8.8500482018e-07     7.2818308754e-07 3.84371463820266e-07 2.10994741617439e-06
   0.187988421464181  0.00229226958025648     1.5220754556e-06     6.9056739225e-07 5.06570520722859e-07 2.00921611827999e-06
   0.190387589701678  0.00232173068901348      6.605346227e-07      6.465807618e-07 6.34052139491859e-07 1.91470167714899e-06
   0.192788773208778  0.00235088219639709     9.2444217358e-07     6.5733504606e-07 6.91330442986881e-07 1.82586899914787e-06
   0.195189758851352  0.00238048196164485     1.2822923089e-06     6.7579946587e-07 6.42173602354225e-07 1.74239168456151e-06
   0.197590586149662  0.00240999090842122     1.1375711633e-06     6.2856644667e-07 5.04090795612766e-07  1.6638846423491e-06
   0.199989042768689  0.00243900705711826     9.6060931872e-07     6.0881281356e-07 3.38416935524438e-07 1.59006256700826e-06
   0.202387316112929  0.00246862512680257    -1.2553825302e-07     5.9752248459e-07 2.22261996956392e-07 1.52053213511171e-06
   0.204787572047444  0.00249751103371303    -5.3436689547e-07     6.2230539742e-07 2.16260950623016e-07 1.45493766202119e-06
   0.207189849563043   0.0025270921569814    -1.0372429282e-06     5.5674350023e-07 3.40176261982127e-07 1.39301755149905e-06
   0.209587538513214  0.00255631517745181     3.2864483589e-07     5.5334026144e-07 5.63760075410142e-07 1.33468413599644e-06
   0.211987244634441  0.00258554630653454     2.0967129057e-07     5.4456063729e-07 8.20056707201101e-07 1.27954641460417e-06
   0.214385659583174  0.00261478873940436    -6.1014744408e-08     5.5585137067e-07 1.02874164742357e-06 1.22745860356252e-06
    0.21678714265125  0.00264413454545794     1.3862339927e-06     5.4587983579e-07 1.12614092336304e-06 1.17813669982468e-06
   0.219189541253441  0.00267365713016718     8.3631909655e-07     5.0843133721e-07 1.08581766503123e-06  1.1314491144263e-06
   0.221588434426738  0.00270268646458063     9.4104956898e-07     5.0431143191e-07  9.2760966927864e-07 1.08730794359053e-06
   0.223991519948917  0.00273222044759876     1.8156925898e-06     5.3352785027e-07  7.0756542422179e-07 1.04541688521477e-06
   0.226387837196734  0.00276108955181504      1.336704909e-06     5.0517595047e-07 4.99521553098325e-07 1.00581745155636e-06
    0.22878830034344  0.00279067620394038     6.3929228991e-07     4.6602876017e-07 3.66831611310726e-07 9.68192548203872e-07
   0.231186386978854  0.00281940427685178     4.0124529306e-07     4.5470089417e-07  3.4519633865605e-07  9.3252040980982e-07
   0.233588613954188  0.00284881693305548     2.2213183525e-07     4.6360685727e-07 4.31753799866538e-07  8.9859122319035e-07
     0.2359884599982  0.00287843647367658     1.2119784631e-06     4.6932827219e-07 5.88702855174142e-07 8.66390516562803e-07
   0.238388068147723  0.00290745068101642      1.116828311e-06     4.3827219424e-07 7.58509274689125e-07 8.35839168458071e-07
   0.240789643160804  0.00293682368062644     9.1869519974e-07     4.2425929703e-07 8.84935062568197e-07 8.07296853414532e-07
    0.24318992443102  0.00296579876592909      1.126060491e-06     4.3408981874e-07 9.38585700500165e-07 7.82569895259045e-07
   0.245589960436862  0.00299528422919512     1.6852930608e-06     4.5127815251e-07 9.34803078421616e-07 7.64090260194995e-07
    0.24798979082866  0.00302418543581423     8.5931164837e-07     4.3026744468e-07 9.09058494485785e-07  7.5211459133466e-07
