# intensity: 0.987933893065602
# background: 2.20967202195693e-07
#           Q (1/A)             dQ (1/A)                    R                   dR               theory              fresnel
 0.00799884985541744 7.68593412513884e-05         1.0028149857       0.026680758399    0.987929870673699    0.118387009877513
 0.00849780871378333 8.31086000545694e-05        0.99042751589       0.019581769898    0.987934114032808    0.102735825138911
  0.0089989639782384  8.9053124723804e-05        0.97526573967       0.017477479889    0.987934114032804   0.0911264551127477
 0.00949902051527334  9.5041557765975e-05        0.97733936694       0.018630663038    0.987934114032805   0.0810024367676618
  0.0100012696146985 0.000101289303703075         1.0055662047       0.021904635702    0.987934114032803   0.0721030700052026
  0.0104991324413922 0.000107465927013324         1.0072722482       0.016753672187    0.987934114032804   0.0643632877157404
  0.0109991884441761 0.000113596114887004         1.0092503215       0.015200421412    0.987934114032803   0.0575028364790759
  0.0114981465460387 0.000119476005970088        0.99863882882       0.016183347089    0.987934114032804   0.0515071220600851
  0.0119982069859884  0.00012568100598132         1.0108320934       0.018959394908    0.987934114032804   0.0462177470651271
  0.0124993511470256 0.000131578483800686          1.001571203       0.014678135488    0.987934114032804   0.0415401402896765
  0.0129972117091319 0.000138031718288429        0.99606787558        0.01306638867    0.987934114032804   0.0374308152418016
  0.0134972640323303 0.000143797542509354        0.99570101871       0.013976953447    0.987934114032803   0.0337725267275007
  0.0139995107036219 0.000150212145848379        0.96492386403       0.015909163867    0.946760405110902   0.0305141658381152
  0.0144995619359866 0.000155969266735304        0.29853729964      0.0045234323149    0.290638360757997   0.0276296810967128
  0.0150018061644453 0.000162451901378653       0.091041665569      0.0017665984154   0.0957077220044645   0.0250515117556661
   0.015499663964965 0.000168235612435107       0.054107259285      0.0012725959345   0.0573678144185154    0.022770952689584
  0.0159975211585671 0.000174584408628853       0.044778230214      0.0011584667716   0.0448660722682142   0.0207327110309283
  0.0164997635402754 0.000180326490713505       0.041634676484      0.0010202702205   0.0406038708323872   0.0188922763117843
   0.016999813011055 0.000186687078583556       0.040434400569     0.00095620602846   0.0394584310673954   0.0172494059700344
  0.0174998605029176 0.000192675403912445       0.040671971574     0.00095498391888   0.0394405365615159   0.0157742829393205
  0.0179999086078632 0.000199135235223224       0.039160876085     0.00095840589537   0.0397199247809169   0.0144471953905776
  0.0184977624508783 0.000205335682782952       0.040394590233     0.00090057339059   0.0399232240584571   0.0132613762955231
  0.0190000013540033 0.000211303602771249       0.038694189652     0.00084823657128   0.0399100532123529   0.0121800603872976
  0.0195000459551978 0.000217470018803972       0.040015076151     0.00086672302786   0.0396307116002083   0.0112038986928556
  0.0200000910914753 0.000223442203214783       0.039655505957     0.00089231186217   0.0390727188980589   0.0103202344237484
  0.0205001354368357 0.000229972813117603       0.039110136541     0.00080732764561    0.038253022851511  0.00951915437012419
  0.0209990819982715 0.000235749421101938       0.037679634734     0.00076364222052   0.0372031299493846  0.00879333489261347
  0.0215002203638056  0.00024219552764034       0.035760058898     0.00074326382574   0.0359487259234849  0.00813054368961619
   0.022000262214415 0.000247848127216401       0.032458466074     0.00071594149805   0.0345323367512621  0.00752838329183034
  0.0225003018861074 0.000254240620854118       0.032977038255     0.00067252507815   0.0329847819652621  0.00697937990122753
   0.022998147150866 0.000259983960823943       0.031298137563     0.00063459663976   0.0313452838464251  0.00648021469891384
  0.0234981850257239 0.000266487363087947        0.02940670832     0.00061427693729   0.0296284115394357  0.00602181130564429
  0.0239982245856649 0.000272320093340032       0.027986113035     0.00061274959539   0.0278678828894081  0.00560216953791024
  0.0244993579646977 0.000278594553924906       0.026296060191     0.00054825620247   0.0260842628218359  0.00521708484354551
  0.0249993948038048 0.000284549360655205       0.024843283769     0.00036923654869   0.0243247137061444  0.00487380656389529
  0.0273997698706757  0.00031439229291317       0.015863804636     0.00034611137862   0.0163603505070905  0.00354147587359112
  0.0298001222114588 0.000344045536895026      0.0097873889491     0.00024667846591   0.0100631739160244  0.00262128712230984
  0.0322004451081538  0.00037311737364538      0.0059986173617      0.0001780755475  0.00582304736691487   0.0019775990485934
  0.0345996443657484 0.000402778566608983      0.0035886562089     0.00012759627505  0.00344321274432198  0.00151782035365286
  0.0369988120862533 0.000431994802837482      0.0023939774203     9.6570713685e-05  0.00242871671164265  0.00118283833273321
  0.0393979434706683 0.000461742103857061      0.0022195595028     8.6250198048e-05  0.00222283297411098 0.000934523137923717
  0.0417981324130087  0.00049048548363809      0.0024497482871     8.4239715914e-05  0.00235138002626121 0.000747452658227293
  0.0441982922112613   0.0005205033110159      0.0023968558381     7.8414947515e-05  0.00249201348749187 0.000604586045567669
  0.0465995077314426 0.000549999365726685      0.0024989168421     7.4609860737e-05  0.00248271939809215 0.000493997857155599
  0.0489984796665018 0.000579505936926114      0.0023527378668     6.8107164389e-05  0.00229195225359751 0.000407490198553172
  0.0513974121714712 0.000609231656812673      0.0019551199801     5.8407370595e-05  0.00197023225372472 0.000339011725750684
  0.0537984935503898 0.000638256193399912      0.0015506561325     4.8705509304e-05  0.00160073213025981   0.0002842135145953
  0.0561995205782218 0.000668354185571882      0.0012425572307      4.136502222e-05    0.001261702578077 0.000240005076173214
  0.0585994055339461 0.000697245381251337      0.0010072067616     3.5329379133e-05  0.00100247772125959 0.000204045391564996
  0.0609970377915376 0.000727055443343926     0.00083064976483     3.0653477276e-05 0.000836944385750752 0.000174577227335463
  0.0634000946951525 0.000756408385436915     0.00070148643546     2.6738091046e-05  0.00074938124261644 0.000150174411930225
  0.0657987131135886  0.00078582386838116     0.00074364232659     2.6218193221e-05 0.000708748888345933 0.000129912391320225
   0.068199461747984 0.000815087142864514     0.00064851077462     2.3483852673e-05 0.000681494197905808 0.000112933798561363
  0.0705979579782414 0.000844863100391815     0.00061190144034      2.154090917e-05 0.000643186802670427 9.86478123536776e-05
  0.0729985851594616 0.000874486716663966     0.00058158536549     2.0049147586e-05  0.00058327688531155 8.65380501294675e-05
  0.0753991404605949 0.000903737025144883     0.00049182366627     1.7816302173e-05 0.000504731393779155 7.62290989897488e-05
  0.0777996269126413 0.000933539504440482     0.00042882697909     1.5858495154e-05 0.000419245795475045 6.74101392486224e-05
  0.0801989472255715 0.000962396056304208      0.0003255240866     1.3406064075e-05 0.000340995526314743 5.98337254272885e-05
  0.0825992903464431 0.000992342430468055     0.00026941524487     1.1697546424e-05 0.000280880689487891 5.32906507702257e-05
  0.0849995578042275  0.00102132043261476     0.00025871674325     1.1054365615e-05  0.00024340749425079 4.76189641125732e-05
  0.0873986559638931  0.00105095069982098     0.00023811376756     1.0152315877e-05 0.000226084154243271 4.26857244436755e-05
  0.0897987705995024  0.00108078727962569     0.00023087942158     9.5237970252e-06 0.000221322763581756 3.83748720738984e-05
  0.0921987980140243  0.00111009278460445     0.00023269386793     9.2666966012e-06 0.000219708300438293 3.45963578345433e-05
  0.0945987412404589  0.00113945649497129     0.00021138803398     8.5407123321e-06 0.000213206586891587 3.12734202838359e-05
   0.096998598087806   0.0011689397708404      0.0002051940177     8.0673178838e-06 0.000197410576017057 2.83418287133157e-05
  0.0993983663650657  0.00119861539726872     0.00016809571885     7.0632087828e-06 0.000172256465947862 2.57476636100198e-05
   0.101799139813275  0.00122774222205489     0.00015200019018     6.4816394144e-06 0.000141246800793633 2.34444110758142e-05
   0.104199822775398  0.00125752178254539     0.00011818195735     5.6531147819e-06  0.00010975119324003 2.13948363156925e-05
   0.106599312109397  0.00128648209531626     8.6831130713e-05     4.7407480793e-06 8.29655602540697e-05 1.95669258040693e-05
   0.108998704105308  0.00131607389104346     5.9744688206e-05     3.8970322875e-06 6.42746298499764e-05 1.79319671032356e-05
   0.111398007023131  0.00134559812174509      5.207929617e-05     3.5766599763e-06 5.44896858061819e-05 1.64658843921348e-05
   0.113799381292948  0.00137512780334286     5.3036748516e-05     3.5263670895e-06 5.20015093801551e-05 1.51471123972482e-05
   0.116197383064555  0.00140513276197817     5.1074899031e-05     3.3652183835e-06 5.36294906786984e-05  1.3960906320995e-05
   0.118596360998115  0.00143386184834683     5.3243259768e-05     3.2635314014e-06 5.58153252120214e-05 1.28896584805459e-05
   0.120999615733763  0.00146358754206677     5.4718022207e-05     3.1845521375e-06 5.57276901077439e-05 1.19190488680945e-05
   0.123399470041194  0.00149274026691499     5.3305374329e-05     3.0807654235e-06 5.19553501176168e-05 1.10406927777372e-05
   0.125800312500585  0.00152243348683754     4.5914290983e-05     2.8370595611e-06 4.46492980046862e-05 1.02428557781474e-05
   0.128197754431751    0.001551388635298     3.4545680546e-05     2.4413303553e-06 3.51887403568827e-05 9.51811410866577e-06
   0.130598364714969  0.00158082786043834     2.5127712067e-05     2.1086311778e-06 2.54633245813522e-05  8.8568305384523e-06
   0.133001043040199  0.00161048480963073     1.6463225641e-05     1.8176320813e-06 1.72531697071046e-05 8.25274500437349e-06
   0.135398123497101  0.00163991685485602     1.0581688791e-05     1.6203411969e-06 1.16880371180269e-05 7.70174429257104e-06
   0.137798368826063  0.00166965810284225     9.4928118862e-06     1.4912648692e-06 8.96862506324581e-06 7.19652015610542e-06
   0.140197392396888  0.00169853555333449     8.6148850931e-06     1.4157554234e-06 8.53918134743364e-06 6.73341309454068e-06
    0.14259847911973  0.00172844818819618     8.8192348953e-06     1.4065919856e-06 9.36771437911374e-06 6.30773570365052e-06
   0.145001620494593  0.00175714016696849       6.93876563e-06     1.3750226761e-06  1.0351989477877e-05 5.91590861440099e-06
   0.147399160051108  0.00178696903189424     9.0220388858e-06     1.3312638373e-06 1.06593263462432e-05 5.55589972961472e-06
   0.149799843159697  0.00181639877953624     9.0450621379e-06     1.2694199143e-06 9.92340508457194e-06 5.22345191233011e-06
    0.15219820097009  0.00184556949029271     7.0736206646e-06     1.1924310635e-06 8.24292022143018e-06 4.91676403867657e-06
   0.154598615252509  0.00187518532898829     4.9052381624e-06     1.1473169675e-06 6.03748266870342e-06 4.63297536298632e-06
     0.1569999720369  0.00190465279781513     3.1194251551e-06     1.0373746702e-06 3.84277905613212e-06 4.37018674018424e-06
   0.159399003573092  0.00193414242258106     5.6397645564e-07     9.1714076318e-07 2.10716908920407e-06 4.12688832847781e-06
   0.161800080971316   0.0019632933079749     5.7599798845e-07     9.1115353472e-07    1.05645240923e-06 3.90098315428432e-06
   0.164200999641457   0.0019929005302175    -1.1383710872e-07     9.2294990906e-07 6.74798072876968e-07  3.6911657636031e-06
   0.166599586873393  0.00202167741357555     2.3844022508e-07     8.8970501943e-07   7.612191467614e-07 3.49626024591151e-06
   0.168999116327304  0.00205148909254566     8.9031565345e-07     8.4886118038e-07 1.03933966813745e-06 3.31477611698977e-06
   0.171399590453193  0.00208045525117075     3.2712568326e-07     8.1322285305e-07 1.26693141534624e-06 3.14561373741407e-06
   0.173798796880934  0.00210990415639424     1.7592417164e-08     8.1811523502e-07 1.30837949801193e-06 2.98793167722604e-06
   0.176196771480527  0.00213985028000779     7.6574609122e-07     8.1239125128e-07 1.15368587518178e-06 2.84080374076448e-06
    0.17859674428216  0.00216879179012137     9.0131229191e-07     7.5689594818e-07 8.86320502722179e-07 2.70320674838215e-06
   0.180997672345778  0.00219845498076204     1.1172606899e-06     7.3471932141e-07 6.25230914243181e-07  2.5744731229485e-06
   0.183397333771245  0.00222750085681955     6.8181884721e-07     7.2937636225e-07 4.65983829961082e-07 2.45403293004954e-06
   0.185800093988831  0.00225700228286495     8.8500482018e-07     7.2818308754e-07 4.43255053399528e-07 2.34105523154195e-06
   0.188199419438133  0.00228604633874016     1.5220754556e-06     6.9056739225e-07 5.26453472062496e-07 2.23527438786777e-06
    0.19059857241935  0.00231550752624199      6.605346227e-07      6.465807618e-07 6.43132229800607e-07 2.13601431850565e-06
   0.192999740462624  0.00234465956594686     9.2444217358e-07     6.5733504606e-07 7.16898542550671e-07  2.0427142225022e-06
   0.195400710447815  0.00237425928383079     1.2822923089e-06     6.7579946587e-07 7.01546094118976e-07  1.9550323276943e-06
   0.197801521894926  0.00240376831527095     1.1375711633e-06     6.2856644667e-07 5.99389372693738e-07 1.87256510441435e-06
    0.20019996248381  0.00243278514904293     9.6060931872e-07     6.0881281356e-07 4.56945120935452e-07 1.79501373234013e-06
   0.202598219604608   0.0024624031507357    -1.2553825302e-07     5.9752248459e-07 3.42097574820174e-07 1.72196580406752e-06
    0.20499845910747    0.002491289940991    -5.3436689547e-07     6.2230539742e-07 3.14665819384786e-07  1.6530483476878e-06
   0.207400719982401  0.00252087112745364    -1.0372429282e-06     5.5674350023e-07  4.0184133130609e-07 1.58798713918101e-06
   0.209798392128947  0.00255009458980419     3.2864483589e-07     5.5334026144e-07 5.86217169432559e-07  1.5266906760271e-06
   0.212198081237563  0.00257932618772745     2.0967129057e-07     5.4456063729e-07 8.14039908883557e-07 1.46874315117105e-06
   0.214596478988019  0.00260856906386939    -6.1014744408e-08     5.5585137067e-07 1.01408773634709e-06  1.4140080691583e-06
   0.216997944640626  0.00263791524420647     1.3862339927e-06     5.4587983579e-07 1.12499849744654e-06  1.3621713900597e-06
   0.219400325625235  0.00266743802173074     8.3631909655e-07     5.0843133721e-07 1.11517964977376e-06 1.31310049205289e-06
   0.221799201011523   0.0026964680737656     9.4104956898e-07     5.0431143191e-07 9.94028580611192e-07 1.26670336683172e-06
   0.224202268520056  0.00272600226641412     1.8156925898e-06     5.3352785027e-07 8.05908410213358e-07 1.22266890389063e-06
   0.226598567610017  0.00275487223993468      1.336704909e-06     5.0517595047e-07  6.1532582282312e-07 1.18104106282134e-06
   0.228999012372224  0.00278445902613224     6.3929228991e-07     4.6602876017e-07 4.81940258400631e-07 1.14148679137469e-06
   0.231397080446183  0.00281318815129684     4.0124529306e-07     4.5470089417e-07 4.43927263839053e-07 1.10398347564843e-06
   0.233799288632398   0.0028426011717867     2.2213183525e-07     4.6360685727e-07 5.05835014997047e-07 1.06831076440422e-06
   0.236199115710365   0.0028722208340635     1.2119784631e-06     4.6932827219e-07 6.39565973294816e-07 1.03445366760431e-06
   0.238598704700251  0.00290123581427842      1.116828311e-06     4.3827219424e-07 7.96004552970307e-07 1.00232783279241e-06
   0.241000260342231  0.00293060923856212     9.1869519974e-07     4.2425929703e-07 9.23091592934106e-07 9.72305958123955e-07
   0.243400522056046  0.00295958515273906      1.126060491e-06     4.3408981874e-07 9.88771746971203e-07 9.46283456908181e-07
   0.245800538311781  0.00298907091917203     1.6852930608e-06     4.5127815251e-07 1.00034262856897e-06 9.26831836756787e-07
   0.248200348759438  0.00301797303091547     8.5931164837e-07     4.3026744468e-07 9.87164802592945e-07  9.1423326869681e-07
