# intensity: 0.971280726091511
# background: 7.10451952958595e-07
#           Q (1/A)             dQ (1/A)                    R                   dR               theory              fresnel
  0.0080989212534477 0.000127035774515712        0.08634541668      0.0025603588041   0.0867182203716737    0.971281436543465
 0.00860775149615609 0.000132933685904349       0.078215381966      0.0022733926929   0.0781384293043963    0.971281436543465
 0.00910783652274099 0.000139277821821682       0.067198582951      0.0019551173426   0.0688519086530604    0.971281436543465
 0.00959909170414333 0.000144966347251218       0.057016468461      0.0016853631724   0.0609246739664112    0.971281436543464
  0.0101079208467229 0.000151479125752916       0.053185987312      0.0015667129286   0.0537775655024054    0.971275122458028
  0.0106167495749854 0.000157234868978323       0.045745232306      0.0013463079996    0.047549102477872    0.945510058060106
  0.0111124173920499 0.000163661100223677        0.04103340377       0.001206680152   0.0422413325805055    0.731486697451043
  0.0116081903645295 0.000169234523922437       0.037154673432      0.0010998497533   0.0375777720828616    0.338780794004968
  0.0121124872174088 0.000175775775118433       0.032270905417     0.00097309436628   0.0334034393978153    0.185009540506516
  0.0126081948306555 0.000181503618318225       0.030285189317     0.00090650166674   0.0297835440064647    0.126105823872361
  0.0131082829183136 0.000188033713932145       0.025438059025     0.00077406277334   0.0265538651090989   0.0919711631041865
  0.0136039509357188 0.000193734005589776       0.022903244334     0.00070206965243   0.0237163363145315   0.0701390408491591
  0.0141127235126942 0.000200133334374461       0.020941659098     0.00065024718286   0.0211318077263118   0.0547443003949205
  0.0146084546366779 0.000206228840619533       0.018923064357     0.00058677749577      0.0188926842681   0.0439551654412271
  0.0151084569898614 0.000212178281263094       0.017116211755     0.00053627643673   0.0168801220080892    0.035855371657255
  0.0156128901547864 0.000218533865733697       0.014995975081     0.00047853100972   0.0150690216985629   0.0296221595818755
  0.0161129208010909 0.000224680687805738       0.013594950787     0.00044308578965    0.013465349808184   0.0248096145899087
  0.0166085754917677 0.000230700533992971       0.011717633535      0.0003884343628   0.0120427262605879   0.0210244893483838
  0.0171086555470343 0.000236768634702379       0.010774921178     0.00035865186268   0.0107569083056332   0.0179503032003221
  0.0176130779376432 0.000243095416494011      0.0092130099407     0.00031625463242  0.00959485164725334    0.015426174745775
  0.0181131591305164  0.00024885989596039      0.0084656119626        0.00029637975  0.00856187693753357   0.0133666626075897
  0.0186087967689432 0.000255607700036291      0.0079025954064     0.00027500091971  0.00764292915270802   0.0116689263662593
  0.0191044340675571 0.000261133227424844      0.0066232577143     0.00024027758882  0.00681743674553815    0.010243631389579
  0.0196132737782338 0.000267703377339259      0.0055237733036     0.00020993861571  0.00605698565853827  0.00900822471814397
  0.0201088765216785 0.000273263711986939      0.0054402937032     0.00020593417691  0.00539226821953696  0.00798493576965665
  0.0206089768375608 0.000279963543481779      0.0047720724049     0.00018338624356  0.00479028491621467  0.00710091147021785
  0.0211134218166074 0.000285749898841851      0.0044608946297     0.00017346783299  0.00424569149778964  0.00633336090746029
  0.0216090967366938 0.000292113824369413      0.0038168089913     0.00015455221931  0.00376595948968389  0.00568057482518019
  0.0221003289667687 0.000298014091995416      0.0036496240859     0.00014836852877  0.00333964967803762  0.00511718844965541
  0.0226135292271539 0.000304218291405239      0.0032358856595     0.00013491181313   0.0029412324425772  0.00460320713809651
  0.0231135846730487 0.000310183848463408      0.0029806203116      0.0001258452882   0.0025946064724437  0.00416437349283708
  0.0236092188004043 0.000316676251198381      0.0026520305918     0.00011543051078  0.00228789184075927  0.00378121667378008
  0.0241048408330442 0.000322849663860907       0.002317720565     0.00010478196393   0.0020143448371319  0.00344225249588435
  0.0246137078570868 0.000328848617294675      0.0020803476792     9.6457021844e-05  0.00176527595132975  0.00313444536689185
  0.0251092726795859 0.000335149897287213      0.0018726666643     6.7888537125e-05  0.00155862405147115  0.00287725471414523
  0.0275217666709595 0.000364193826498853      0.0010955754341     5.9930732947e-05 0.000821655876257277  0.00192852022403575
  0.0299077789181563 0.000394129987546686     0.00068822669374     4.2705738675e-05 0.000430176183495067  0.00134290305076503
  0.0323114435951785 0.000423121964106339     0.00038205590059     2.9175002901e-05 0.000240732381430291 0.000963649964816443
  0.0347150285580595 0.000452939194263784     0.00027428802073     2.2979616402e-05 0.000161657467646437 0.000710475647237536
  0.0371098458290149 0.000482346962846063     0.00020992013224     1.8887831883e-05 0.000135091002755906 0.000536442767626164
  0.0395089691435751  0.00051174142573358     0.00017878291946     1.6428758375e-05  0.00012876658059102 0.000412795895930613
  0.0418992915967991 0.000541072716887605     0.00015320563905     1.4346369893e-05 0.000127515787439513 0.000323342370821878
  0.0443027338417548 0.000570705836805197      0.0001279583107     1.2505359819e-05 0.000125960568028473 0.000256720494851761
  0.0467149110955741 0.000600341092613007     0.00011568876015     1.1358271362e-05 0.000123436065822839  0.00020635774647097
  0.0491051201138057 0.000629517299829112     0.00011474864321     1.0648769035e-05 0.000120648536614691 0.000168152215926159
  0.0515127964430519 0.000659354996976427     0.00011554320753     1.0195096521e-05 0.000117767185835951 0.000138270938608833
  0.0539117139628665 0.000688377180539352     0.00010620211611     9.4326468746e-06 0.000114107200814476 0.000114864298918691
  0.0563105287957121 0.000718336283811956      9.531035598e-05      8.564990304e-06  0.00010837695572547 9.62508713775263e-05
   0.058718095172629 0.000747391542867494     8.9509450134e-05     7.8026974421e-06 9.93880405699025e-05 8.12431442577086e-05
  0.0611124200620864 0.000776988461089153     8.0686262219e-05      7.083153203e-06 8.68163802270715e-05 6.91386777666586e-05
  0.0635155071346547  0.00080699231279973     6.3396182875e-05     6.2113913319e-06 7.11558456026866e-05 5.91998468125278e-05
   0.065922868154719 0.000836014070603494     5.8864371009e-05     5.7986854315e-06 5.39124278448236e-05 5.09917180036983e-05
  0.0683082845449393 0.000865573609851379     4.3237449192e-05     4.9048918192e-06 3.72367808251813e-05 4.42345421304908e-05
  0.0707067650045851 0.000894933219610903     3.9069999344e-05     4.5737667037e-06 2.27701255932335e-05  3.8550492219824e-05
   0.073118336704864 0.000924622266586515     2.2886647423e-05     3.8596939509e-06 1.19274810251498e-05 3.37421828732176e-05
  0.0755123190767499 0.000953775552277175     1.3195364229e-05     3.4554812735e-06 5.43153432040333e-06  2.9702499509003e-05
  0.0779149739816637 0.000983582767699168     9.8278785225e-06     3.0793513575e-06 2.99129548172592e-06 2.62518541526177e-05
  0.0803088452684745   0.0010125465775164     1.0560895404e-05     2.9954863678e-06 3.82327982690567e-06 2.33103334097121e-05
  0.0827025951177806  0.00104231603793939     7.3038198838e-06     2.8528466054e-06 6.81024595697508e-06 2.07813798945052e-05
  0.0851006697781144  0.00107188309841803     1.4364990167e-05     3.1560665228e-06 1.08313305957422e-05 1.85934074000157e-05
  0.0875030505318866  0.00110112367059986     1.4718536491e-05     2.9334544451e-06   1.494004131989e-05 1.66928480270401e-05
  0.0899053512396755  0.00113107588181322     1.9323223131e-05     2.9052022651e-06 1.84538668869591e-05 1.50385841767618e-05
  0.0923031974467719  0.00115989211811103     2.1829020468e-05     2.9021092799e-06 2.09676147396389e-05 1.35956994915058e-05
  0.0947053304043171  0.00118965346968089     2.6387221727e-05     3.0360404597e-06 2.23015367804957e-05 1.23281327145258e-05
  0.0971073714860723  0.00121907149656886     2.3026477941e-05     2.7917344254e-06 2.24048722507478e-05 1.12128959433315e-05
   0.099513686630865  0.00124865893062278     2.1048831586e-05     2.5876682965e-06  2.1326854147781e-05 1.02268187313659e-05
   0.101911183628436  0.00127783839201791     2.3654959422e-05     2.5986886124e-06 1.92128377247408e-05  9.3569130935688e-06
   0.104308586097546  0.00130720105319024     2.3102232492e-05     2.6184681121e-06 1.62862837681191e-05 8.58439414814148e-06
   0.106710253347061  0.00133694950393894     1.7625805761e-05     2.3633800802e-06 1.28596845208055e-05 7.89518311781154e-06
   0.109116223794765  0.00136637183837409     1.0241285549e-05     2.0652306614e-06 9.32018796337303e-06 7.27876258094534e-06
   0.111513316722945  0.00139609777524101     1.0472926816e-05     2.0314368881e-06 6.09236335361506e-06 6.72905396845949e-06
   0.113919077902954  0.00142511226477276     3.7705378133e-06     1.9123760282e-06  3.5017798478003e-06 6.23402038284076e-06
   0.116311587017714   0.0014549232461736     4.2119788252e-06     1.8708917025e-06 1.79277252876482e-06 5.79123748804287e-06
   0.118717130773045  0.00148382393866804     4.7772262071e-06      1.768246704e-06 1.00025112348789e-06 5.38992136119134e-06
   0.121118191334509  0.00151358567660245     4.1814711059e-06     1.7010251012e-06 1.01962382375721e-06 5.02812021054828e-06
   0.123510361734116  0.00154309362724219     4.2081155122e-06     1.7154951149e-06 1.60441885229289e-06 4.70181006376292e-06
   0.125911223469921  0.00157207641491475     3.8468795144e-06      1.706304384e-06 2.46314010804581e-06 4.40475521187338e-06
   0.128311936461094  0.00160192110026259     5.5460512043e-06     1.6199560741e-06 3.31972140799906e-06 4.13486535700151e-06
   0.130712503631245  0.00163114423475459     3.5808722144e-06     1.5352031033e-06 3.98135454686858e-06 3.88920468089732e-06
   0.133113015564164  0.00166079679205411     5.7496188851e-06     1.5860647056e-06 4.36308430039949e-06 3.66520273402266e-06
   0.135504627763498  0.00168982487157154     4.1068299123e-06     1.5922163377e-06  4.4779712111654e-06 3.46133112463634e-06
   0.137913618318862  0.00171959686428127      9.052515487e-06     1.5538679064e-06 4.40077683534051e-06 3.27346065892072e-06
   0.140309347562158  0.00174851174949592     3.7787917517e-06     1.4144475575e-06 4.22194637004357e-06 3.10226656099933e-06
   0.142709340185437  0.00177824225291555     6.3656889147e-06     1.4530216804e-06 4.00730498510576e-06  2.9448786410526e-06
   0.145109200946597   0.0018073829213912     6.6277728644e-06     1.5094158441e-06 3.78182617353761e-06 2.80023900061271e-06
   0.147517668356368  0.00183676993572776     5.1434651907e-06     1.3695784218e-06 3.53099328864589e-06 2.66666166171987e-06
    0.14990411980695  0.00186677681971523     5.5380980098e-06     1.3069808689e-06 3.22704409406586e-06 2.54467631297769e-06
   0.152307937672983  0.00189573785715325     5.5605317465e-06     1.2933826518e-06 2.84215270662978e-06 2.43127118413155e-06
   0.154702869913052  0.00192540083516337     8.7320219425e-06      1.368346308e-06 2.38502297797642e-06  2.3268724260502e-06
   0.157102039004833  0.00195455288930154     5.2535267711e-06     1.2564950505e-06 1.89234882952891e-06  2.2301203647187e-06
   0.159501064382913  0.00198403977083309     6.5245919049e-06     1.2235943709e-06 1.42899791266791e-06  2.1405026108982e-06
   0.161899952781361  0.00201315263824443     5.2701707875e-06     1.2142834813e-06 1.06481640878135e-06 2.05740139376011e-06
   0.164294295386754  0.00204261365702102     2.5255939125e-06     1.2354818678e-06 8.54247580172533e-07 1.98039560765388e-06
   0.166701634189319  0.00207184466651754     4.4740396715e-06     1.2145684228e-06 8.19173826335284e-07 1.90844264010583e-06
   0.169108821054374  0.00210147180462328     1.9674937532e-06     1.1161639995e-06 9.46913059469374e-07 1.84151937676831e-06
    0.17150708670321  0.00213096765605164     4.7382052799e-06     1.1196367763e-06 1.19119696228896e-06 1.77942921633011e-06
   0.173909572159068  0.00215995294481733     4.4456835275e-06     1.1340583214e-06 1.49138676673099e-06 1.72144472938256e-06
   0.176303158924474  0.00218988424816501     6.0693024405e-06     1.1247407892e-06 1.78390259709492e-06 1.66753626631643e-06
    0.17870969961325  0.00221863103768023     7.3154119856e-06     1.0720275246e-06 2.02187947303228e-06 1.61690995396688e-06
   0.181111708063227  0.00224849491991563     5.1053719673e-06     1.0258240586e-06 2.17311653672845e-06 1.56967514238374e-06
   0.183509173799712   0.0022775367589068     5.7134866976e-06      1.053128738e-06 2.22757232621972e-06 1.52555810742532e-06
   0.185893348719588   0.0023067685814416     7.5706810741e-06     1.0742755796e-06 2.19040862860051e-06 1.48446060212869e-06
   0.188299229966084  0.00233623465042387     6.6508701168e-06     9.9718909703e-07 2.07410445135868e-06  1.4455826360512e-06
   0.190691795443522  0.00236546012557502     7.6518170557e-06     9.7847467822e-07 1.89770718195078e-06 1.40931129021543e-06
   0.193101699353964  0.00239493344675229     7.1758317623e-06     9.8290280641e-07 1.67884652123475e-06 1.37501116944226e-06
   0.195498296507668  0.00242401202228277     7.2546848619e-06     1.0039586762e-06 1.44196384044647e-06 1.34296240524187e-06
   0.197894716557469  0.00245360826273283      6.761991461e-06     9.3429785155e-07 1.20966622608444e-06 1.31282579093754e-06
   0.200295346891782  0.00248247863239849     6.6039515386e-06     9.0572936565e-07 1.00640520801074e-06 1.28441481890247e-06
   0.202700143028329  0.00251231331139799     5.6098266576e-06     9.0331526218e-07  8.5553165118159e-07 1.25761509790781e-06
   0.205100376225862  0.00254117304909535      4.067034538e-06     9.3381204702e-07 7.74394131612659e-07 1.23240766835415e-06
   0.207496069463348  0.00257053255215182     4.4327535834e-06     8.6681747877e-07 7.68708364132401e-07 1.20867970333201e-06
   0.209900301083581  0.00260016659069858     3.7242591719e-06     8.2552113387e-07 8.31348800714892e-07 1.18621020437358e-06
   0.212295610862265  0.00262917747146403     4.7652469675e-06     8.3048432913e-07 9.41595823865987e-07 1.16506795940837e-06
   0.214699448969438  0.00265867734440848     4.8673451361e-06     8.5877380353e-07 1.07153394968109e-06  1.1450185699684e-06
   0.217098714101826  0.00268781665114356     6.0231028511e-06     8.1879541304e-07 1.18967593699777e-06 1.12609756833855e-06
   0.219497821725605   0.0027172879822392     5.5103562763e-06      7.757090739e-07 1.27055577894783e-06 1.10819678691675e-06
   0.221905454349679  0.00274623496355563     5.0499710532e-06     7.6806426164e-07  1.2991580767099e-06 1.09119072289289e-06
   0.224295385170314  0.00277575263863671     4.8851298393e-06     7.9382985158e-07 1.27342480641644e-06 1.07519973468858e-06
   0.226702594600904    0.002804595692907     5.5964440963e-06     7.7285996248e-07 1.20287679228436e-06 1.05993273872316e-06
   0.229100853232423  0.00283398197322158     5.3551533217e-06     7.3140833932e-07 1.10554029267202e-06 1.04550902354536e-06
    0.23149890229378  0.00286336215243205     5.7540369503e-06     7.2556965876e-07 1.00093239889211e-06 1.03182314487266e-06
   0.233896745151576  0.00289267474317405     4.4777496115e-06     7.3559078736e-07 9.05890619838641e-07 1.01883020267424e-06
   0.236298732856843  0.00292215131480632     6.3568285403e-06     7.3823368045e-07 8.31072526704434e-07 1.00646671687899e-06
   0.238700502787591  0.00295082504011863     5.4504108218e-06     6.9060619668e-07 7.80532791207916e-07  9.9471753360122e-07
   0.241093336930539  0.00298056147118241     5.2336374262e-06     6.7580342642e-07 7.52547316080986e-07  9.8361224436099e-07
   0.243494666737808  0.00300949825361575     4.4128662057e-06     6.8579877078e-07 7.41673092998837e-07 9.73233073496341e-07
    0.24590011982477  0.00303887411266668     4.4796996598e-06     6.9151246892e-07 7.41337430201525e-07 9.64268690817039e-07
   0.248301012940131  0.00306779783285975     5.1146264921e-06     6.5402656673e-07 7.45080280557538e-07 9.57589834670853e-07
   0.250701674503854  0.00309714399364015     4.6609131944e-06     6.3619614175e-07 7.48983585406739e-07 9.53234305702688e-07
