# intensity: 0.948498883699584
# background: 1.62197647897316e-06
#           Q (1/A)             dQ (1/A)                    R                   dR               theory              fresnel
 0.00816043397905772 0.000241591344309889        0.94042127662       0.020258761055    0.948500505676064    0.106405196593002
 0.00866926418022111 0.000246678645288689        0.96468354227       0.020226066995    0.948500505676066   0.0985317455792813
 0.00917809402603709  0.00025291026530944        0.97079721644       0.020121600694    0.948500505676063   0.0877036293239864
 0.00966497026664003 0.000258253228062432        0.97337785591       0.020279988109     0.94850050567606   0.0783687997896852
   0.010162847965063  0.00026449790806914        0.99557930958       0.021085442115    0.948500505676061   0.0699819306194407
  0.0106782620703892 0.000269891195860267        0.99774126173       0.020618389947    0.948500505676062   0.0623566444622458
  0.0111695398866461  0.00027618769511695         0.9987182978       0.020468967469    0.948500505676063   0.0559643606343051
  0.0116630234056609 0.000281354402906639         1.0035928266       0.020685919128    0.948500505676063   0.0502933958026994
  0.0121696539365129 0.000287634416496863        0.99744285755       0.020907138128    0.948500505676064   0.0451517862917662
  0.0126784801188974 0.000293110339818487         1.0051030258       0.020607493284    0.948500505676067   0.0405885285669455
  0.0131631619913567 0.000299188850828953         1.0068367122       0.020481880295    0.948475476270725   0.0367350048475906
  0.0136654300604572   0.0003048881024027        0.99865338281       0.020430051963    0.943013524338866   0.0331864660967966
  0.0141786391080685 0.000311155030418231        0.94694268522       0.019708224304    0.834151147653027   0.0299667432992005
   0.014674313416566 0.000317177902759496         0.4818504735      0.0098755600991    0.530296297382508   0.0271992564486377
  0.0151677607120853 0.000322851768725952        0.23204933846      0.0047867014696    0.278386433343459   0.0247393225261006
  0.0156744387484247 0.000328847139563471        0.15293694318      0.0032076252777    0.158542381495271   0.0224821578651287
  0.0161788422714719  0.00033456403382679        0.10837367154      0.0023339461332    0.105393002709071   0.0204724660313644
  0.0166722993716213  0.00034093111189217        0.08261240226      0.0017603113986   0.0763081419732524   0.0187095435735397
  0.0171657474560719 0.000346251434803342       0.064198739685      0.0013781846139   0.0577468282749562   0.0171244061377833
  0.0176702144213005 0.000352657505645732       0.051287607468        0.00112058345   0.0448594603248559   0.0156667057736811
  0.0181790351870484 0.000358205747599424       0.041878828386     0.00093863990418   0.0356551067567019   0.0143433580103922
  0.0186724859982676 0.000364631365901501       0.034897041117     0.00077618690841   0.0291088690203194   0.0131858315121303
  0.0191747146207076  0.00037011678299005       0.029505276495     0.00066166954692   0.0240807467602448   0.0121207261092753
  0.0196791717328321 0.000376605402606604       0.024928613123     0.00056922928254   0.0201960792098691   0.0111530368343254
  0.0201704372182819 0.000382170341352253       0.021497382885      0.0005030374581   0.0172224193115883   0.0102984048320623
  0.0206661094758001 0.000388377088865271       0.018389141989     0.00042927877615    0.014822360554222  0.00951494862124027
  0.0211705297554945 0.000394194931820628       0.016273428581     0.00038170379031   0.0128429991609029  0.00879017644898925
  0.0216793436661444 0.000400652534720412       0.014421171716     0.00034362209324   0.0112061188272339  0.00812541488807731
  0.0221750060076171  0.00040662980032035       0.013088962395     0.00031804765139  0.00987961924449853  0.00753531996894753
    0.02266845084454 0.000412225564665002       0.011661152119     0.00028326700722  0.00876505006503878  0.00699863812357759
  0.0231794656346882 0.000418287139865185       0.010075319114     0.00024736290961  0.00778202608869458  0.00649082587471197
  0.0236707988598423 0.000424119535848533      0.0091784957403      0.0002283491178  0.00696828200169323  0.00604406429383607
  0.0241707683603435 0.000430545275728782      0.0081872962091      0.0002084304706  0.00624783775622708  0.00562739259146502
  0.0246795754228975 0.000436165912150255      0.0073120193556     0.00018673134825   0.0056091377166089  0.00524066673982252
  0.0251796127057536  0.00044262440129927      0.0066580714925      0.0001521029448  0.00507336190378334  0.00490163296806439
  0.0275766982561622 0.000471074636238988      0.0042495052754     0.00011362611666  0.00311556746923626  0.00357764337282727
  0.0299671402902213  0.00050065916490468      0.0027195620028     7.7930941748e-05  0.00186245781216333  0.00265771420598604
  0.0323686109314548 0.000529207313735079      0.0016858937884     5.3699973091e-05  0.00106277024656923  0.00200905138962704
  0.0347677928309648  0.00055843662659695      0.0011925729627     4.0071175213e-05 0.000591828058839337  0.00154486724257193
  0.0371691502128255 0.000588044209434542     0.00091976044572     3.2059828454e-05 0.000367265850091589  0.00120573675933936
  0.0395682923544231 0.000616805173116572     0.00077174902963     2.7475934503e-05 0.000322131367580597 0.000954138635942662
  0.0419695692971642 0.000646368844290191     0.00075220754225     2.5585058445e-05  0.00039428083926106 0.000764239840633982
   0.044366454733691 0.000675342629726639     0.00072485168396     2.4114167428e-05 0.000527211737496835 0.000619242595698374
  0.0467698237343371 0.000704723152170622     0.00079543796659     2.4606757598e-05 0.000674339312329318 0.000506607751168544
  0.0491666220372266 0.000733670601973053     0.00081114203687     2.4149907516e-05  0.00079948098836431  0.00041855676297987
  0.0515721312460787 0.000763322342701671      0.0008555855957     2.4553236457e-05 0.000881134672061817 0.000348546384768773
  0.0539731981490142 0.000792150495531842     0.00080413659193     2.2608734135e-05  0.00090946142299777 0.000292636285647779
  0.0563720263847029 0.000821607962718196     0.00073335198344     2.0897064006e-05 0.000886529668495698 0.000247531785106179
  0.0587839659850896 0.000851086818969051     0.00068140540058      1.896895103e-05 0.000822123839850981 0.000210610139597903
  0.0611739372850906 0.000880304767004653      0.0006131613404     1.7162700982e-05 0.000732395742402106 0.000180582481739883
  0.0635813603488719 0.000910176900299873     0.00053954760843     1.5326033451e-05 0.000632493721087198 0.000155574623320255
  0.0659821654117726 0.000938860881947361     0.00048287476174     1.3653208403e-05 0.000538461844544899 0.000134817249936386
  0.0683719184564676 0.000968717152971072     0.00042580296411     1.2280562568e-05  0.00046179231323741 0.000117505462557365
  0.0707726400214919 0.000997755619075153     0.00039580661525     1.1249988092e-05  0.00040836334474494 0.000102846610847672
  0.0731776107355105  0.00102730060457196     0.00038830096636     1.0893443758e-05 0.000380068346371986 9.04047616363117e-05
  0.0755650568622528  0.00105635190251205     0.00039346744622     1.0870685222e-05 0.000374064948647033 7.98827282912048e-05
  0.0779699064823006   0.0010856944007848      0.0004075900885     1.0840158047e-05 0.000384067126640226 7.08096801649658e-05
  0.0803681314988146  0.00111517836652423     0.00040001183269     1.0728896632e-05 0.000402123719430993 6.30298856533637e-05
  0.0827684605677378  0.00114467217835821     0.00040545130424     1.0445651016e-05 0.000420161410095599 5.63051979386246e-05
  0.0851621475265881  0.00117427343654286     0.00039828021459     1.0189034031e-05 0.000431178777668672 5.04892215353756e-05
  0.0875645262593878  0.00120310339866361      0.0003922543717     1.0031144408e-05 0.000430405791114978 4.54074430429351e-05
  0.0899690124246819  0.00123317949005846     0.00035479245702     8.9678797134e-06 0.000415525775912127 4.09641355277499e-05
  0.0923646577482837  0.00126190978698143     0.00031591822822     8.2472361537e-06 0.000387025007116439 3.70825094447983e-05
  0.0947667984438723  0.00129183467997388     0.00028313734905      7.295329819e-06 0.000347286503662591 3.36594028911998e-05
  0.0971710109520498  0.00132103040469138     0.00024690532014     6.4597459106e-06 0.000300356904222121 3.06350571577455e-05
   0.099579549906961  0.00135030696286035     0.00019904836892      5.424663388e-06 0.000250910697728389 2.79543910972792e-05
   0.101966082274464  0.00137976056687729     0.00016484333687      4.563999053e-06 0.000204012504768904 2.55963555465037e-05
   0.104372235494053  0.00140912493470852     0.00014381280847     4.1609406585e-06 0.000162547571693736 2.34798609437711e-05
   0.106773903339445  0.00143882388551539     0.00013369107922     3.7882541235e-06 0.000129426582484308 2.15947143506528e-05
   0.109177674055255  0.00146781263415616      0.0001238101761     3.5172064553e-06 0.000105541905320977  1.9906754525267e-05
   0.111579151340799  0.00149754152099606     0.00011425814612     3.2738804224e-06 9.05537878306039e-05 1.83945348395868e-05
   0.113982717665369   0.0015264335498682     0.00011148929981     3.1442982976e-06 8.29400555287147e-05 1.70340500063336e-05
   0.116370840622128  0.00155627105245399     0.00010752316696     3.0998917888e-06 8.05365427449316e-05 1.58161070537338e-05
   0.118771997659459   0.0015852008164897      0.0001011838457      2.787417455e-06 8.08825773960865e-05 1.47102858676044e-05
   0.121170856603636  0.00161510607494772     9.6163217378e-05     2.6328526327e-06  8.1729667284634e-05 1.37108646156541e-05
   0.123574001413975  0.00164461258094266     8.5959313873e-05     2.4067398962e-06 8.12916796536716e-05 1.28033654043591e-05
    0.12597044612681  0.00167352174042855     7.9147492517e-05     2.2544534791e-06 7.84573193130027e-05 1.19815251805123e-05
   0.128373369251511  0.00170321456765845      6.690692774e-05     1.9751979413e-06 7.28125377559315e-05 1.12318272854015e-05
   0.130769585685117  0.00173234213291407      5.394557596e-05     1.6846493848e-06 6.46374249323372e-05 1.05504724747512e-05
   0.133172260155236  0.00176186386904064     4.2612585873e-05     1.4254635042e-06 5.46166898735768e-05 9.92679417270739e-06
   0.135572615853024  0.00179094768456602     3.4312349983e-05     1.2470023337e-06 4.37807771428192e-05 9.35709091627887e-06
   0.137972845506512  0.00182065385886877      2.538842805e-05     1.0331344934e-06 3.31673942414104e-05 8.83539956228208e-06
   0.140372950443361  0.00184956719843865     2.0401880397e-05     9.1307374828e-07 2.36837566561704e-05 8.35692574402608e-06
   0.142770745737441    0.001879417465823     1.5917959945e-05     8.1562884394e-07 1.59760685491165e-05 7.91785524822637e-06
   0.145168413103471   0.0019086962459073     1.3010019891e-05     7.7292419803e-07 1.03430565453943e-05 7.51397805635624e-06
   0.147574699012253  0.00193778350498456     1.1282400833e-05     6.9662102899e-07 6.76184368140766e-06 7.14068124232626e-06
   0.149972095656231  0.00196765572608672     9.6808122521e-06     6.4169653162e-07  4.9763643095386e-06 6.79766229433779e-06
   0.152364969691408  0.00199634163155789     7.8854624893e-06     6.0231484619e-07 4.52147431495604e-06 6.48143560755672e-06
   0.154770107710989  0.00202623640901443      9.572375751e-06      7.136060187e-07 4.88248282996485e-06 6.18754240192081e-06
   0.157160515819953  0.00205528590041577     7.7128434508e-06     6.4288099326e-07 5.56731881713002e-06 5.91711708493997e-06
   0.159565376910803  0.00208476409508969     7.0560157705e-06     5.9835244251e-07 6.19570668011744e-06 5.66495156907076e-06
   0.161970085287711  0.00211401823439275     7.8252182171e-06      5.998961776e-07 6.51465286418228e-06 5.43101783797901e-06
   0.164365896672381  0.00214351966966717     6.8132187651e-06     5.8410304876e-07  6.4246219296818e-06 5.21452760611624e-06
   0.166773227121403  0.00217280870717739     5.3332378769e-06     5.3839164187e-07 5.95169156498178e-06 5.01225678461807e-06
   0.169174557123601  0.00220188370741932     5.0752632764e-06     5.1048462117e-07 5.21346504948197e-06 4.82446283247669e-06
   0.171572825892944  0.00223169824316351      3.641740675e-06     4.7418409992e-07 4.36651902707635e-06  4.6497040658964e-06
    0.17397093771101  0.00226059763302946     2.5461663524e-06     4.6118555115e-07   3.562689593904e-06 4.48670477527722e-06
   0.176365963023345   0.0022902040726914     2.1531124671e-06     4.4401219565e-07 2.91879362912276e-06 4.33471444387198e-06
   0.178769588900518  0.00231908579394056     1.5170202315e-06     4.0551742961e-07 2.49358896741922e-06 4.19216890097968e-06
   0.181158476504457  0.00234866211077906     1.3533541591e-06     3.9106453261e-07 2.29429104098855e-06 4.05965314521634e-06
    0.18356468106439   0.0023779226935375     9.1309153876e-07     3.8963709415e-07 2.27477485878384e-06 3.93469283667863e-06
   0.185959055043872  0.00240735450764289     1.5369394716e-06     3.9833357612e-07 2.36384106755043e-06 3.81819133203791e-06
   0.188370765637329  0.00243665919865897     5.5600684639e-07     3.5733578368e-07 2.48292781253661e-06 3.70816292978196e-06
   0.190758956065457  0.00246562165218365     6.6232133157e-07     3.4654198149e-07 2.56318585844056e-06 3.60591008389013e-06
   0.193173225800041  0.00249530392552685     3.2296415994e-07     3.4434679018e-07 2.56445093547117e-06 3.50882810901048e-06
   0.195563994830024  0.00252429922393396     1.0393211062e-06     3.6114754925e-07 2.47624437761326e-06 3.41846746735019e-06
    0.19796041681917  0.00255390609933184     8.5366250841e-07     3.3259512839e-07 2.31647257281995e-06 3.33325629592247e-06
   0.200365402817941  0.00258291516035382     1.3522113278e-06     3.2716985665e-07 2.12239076618651e-06 3.25272816723033e-06
   0.202761455626161  0.00261232412990769      2.039141174e-06     3.3745829929e-07 1.94143480265906e-06 3.17721582019298e-06
   0.205168988124979  0.00264136529895838     2.4351595507e-06     3.5584701315e-07 1.81363406501937e-06 3.10565673067356e-06
   0.207561743038658  0.00267090922614356     2.3494990003e-06     3.2891939497e-07 1.76764396851125e-06 3.03856803276649e-06
   0.209960156392701   0.0027003134067558     3.3843908233e-06     3.2890629428e-07 1.81026804548768e-06  2.9750816440637e-06
   0.212358365683302  0.00272911899067102      3.246467622e-06     3.2294606415e-07 1.92922430546215e-06 2.91511496382879e-06
   0.214756370003368  0.00275888681099969     2.2574147794e-06     3.1716442649e-07 2.09592323671264e-06 2.85843865397444e-06
    0.21715419059663  0.00278765094431023     2.8860862083e-06     3.0782191184e-07 2.27277450618482e-06 2.80483514419496e-06
   0.219563477874287   0.0028172640468699     2.8046527436e-06     2.9262333271e-07 2.42239265210061e-06 2.75386873082312e-06
   0.221969637491054  0.00284626800657594     1.9230021494e-06     2.7878388829e-07 2.51292795216836e-06 2.70567660685194e-06
    0.22435519458188   0.0028755640850593     1.6226653924e-06     2.8376591525e-07 2.52733760964737e-06 2.66040249247031e-06
   0.226763856821371  0.00290494156235475     1.0134455126e-06     2.6711804934e-07 2.46432829292705e-06 2.61706265784434e-06
   0.229160662621638   0.0029341138192966     6.9608808893e-07      2.490746914e-07 2.33782067268472e-06 2.57615644978119e-06
   0.231560153767148  0.00296341586121663     1.0471486058e-06     2.4855854721e-07 2.17223817762891e-06  2.5372876737824e-06
   0.233962360531929  0.00299241105691747     9.4595012711e-07     2.5350481309e-07 1.99796365037792e-06 2.50033623487667e-06
   0.236361432655377  0.00302213672365912     6.8835615696e-07     2.4649912036e-07 1.84529999700699e-06 2.46527562123839e-06
   0.238760290297616  0.00305067377370349     1.0385543147e-06     2.3526900632e-07 1.73758427256485e-06 2.43194798192472e-06
   0.241158935686984  0.00308038647652245     1.4045927786e-06     2.3392642358e-07 1.68804328957238e-06 2.40035868564747e-06
   0.243551519302951  0.00310929384177821     1.3168568981e-06     2.3735537649e-07  1.6956955847943e-06 2.37113385702491e-06
   0.245958445636007  0.00313843573537358     1.3242815683e-06     2.3891299038e-07 1.74221351015764e-06 2.34596129478767e-06
   0.248353503890623  0.00316774528961077     1.2437939413e-06     2.2434308729e-07  1.7979092794692e-06 2.32728871836404e-06
   0.250759977212114  0.00319684388737261     1.0167351098e-06     2.1750697923e-07 1.84377033365931e-06 2.31493323351142e-06
