# intensity: 0.912620483649726
# background: 8.41280221545869e-06
#           Q (1/A)             dQ (1/A)                    R                   dR               theory              fresnel
 0.00792172967745111 0.000181673761053497        0.08634541668      0.0025603588041   0.0702815958082374    0.912628896451941
  0.0084305600381291 0.000187363411888372       0.078215381966      0.0022733926929   0.0637971131743889    0.912628896451941
 0.00893064518773295  0.00019354555662892       0.067198582951      0.0019551173426   0.0559905557221031    0.912628896451941
 0.00942190049681297 0.000199050920255742       0.057016468461      0.0016853631724   0.0493685911235683    0.912275011995471
 0.00993072977877529 0.000205420047732102       0.053185987312      0.0015667129286   0.0434581023588235    0.826253500022678
  0.0104395586536836  0.00021099460725078       0.045745232306      0.0013463079996   0.0383551945609953     0.43313511589538
  0.0109352266205845  0.00021730101260892        0.04103340377       0.001206680152   0.0340446973481992    0.217771284255875
  0.0114309997498267 0.000222710075984829       0.037154673432      0.0010998497533   0.0302879597934601    0.134772745007769
   0.011935296769238 0.000229142747167197       0.032270905417     0.00097309436628   0.0269503781638553   0.0931680492681308
  0.0124310045531332 0.000234728082287288       0.030285189317     0.00090650166674   0.0240757352074549   0.0686791404459103
   0.012931092819933 0.000241164257657884       0.025438059025     0.00077406277334   0.0215268893158425   0.0524526966978959
  0.0134267610218195 0.000246731479490055       0.022903244334     0.00070206965243   0.0192999097773292   0.0412530505102741
  0.0139355337953217 0.000253031140666894       0.020941659098     0.00065024718286   0.0172815135295135   0.0329415690729434
  0.0144312651177793 0.000259025979241511       0.018923064357     0.00058677749577   0.0155402099084464   0.0268998287417616
  0.0149312676781303 0.000264866959316728       0.017116211755     0.00053627643673   0.0139805726091273   0.0222374382055179
  0.0154357010591656 0.000271137191664804       0.014995975081     0.00047853100972   0.0125811338439685    0.018572108681889
  0.0159357319267395 0.000277194572223477       0.013594950787     0.00044308578965    0.011344413911632   0.0156926033105566
  0.0164313868436717 0.000283125291130142       0.011717633535      0.0003884343628   0.0102486543095905   0.0133958272769654
  0.0169314671341985  0.00028910661426967       0.010774921178     0.00035865186268  0.00925863464240592   0.0115085305198119
  0.0174358897692178 0.000295360220909695      0.0092130099407     0.00031625463242  0.00836344833104574  0.00994354762307028
  0.0179359712114443 0.000301028089125622      0.0084656119626        0.00029637975  0.00756653661030218  0.00865581855696303
  0.0184316091039313 0.000307737635951299      0.0079025954064     0.00027500091971   0.0068559047443716  0.00758668623369109
   0.018927246663497 0.000313163457544546      0.0066232577143     0.00024027758882  0.00621527492800804  0.00668341217470943
  0.0194360866492461 0.000319680519346358      0.0055237733036     0.00020993861571  0.00562237606640373  0.00589615873648423
  0.0199316896675903 0.000325148590795148      0.0054402937032     0.00020593417691  0.00510111347097886  0.00524091965404694
  0.0204317902678518 0.000331812930061225      0.0047720724049     0.00018338624356   0.0046257135453679  0.00467243628190893
  0.0209362355408564 0.000337516795870358      0.0044608946297     0.00017346783299  0.00419202130035819   0.0041769761940381
  0.0214319107567442 0.000343835477200242      0.0038168089913     0.00015455221931  0.00380625664628315  0.00375419401679314
  0.0219231432867697 0.000349672756846104      0.0036496240859     0.00014836852877  0.00345958853127264  0.00338817038718345
  0.0224363438677504 0.000355815151244419      0.0032358856595     0.00013491181313  0.00313143315555269  0.00305333818690089
  0.0229363996331368 0.000361718590497234      0.0029806203116      0.0001258452882  0.00284175790160184  0.00276676695279481
  0.0234320340840817 0.000368178581949932      0.0026520305918     0.00011543051078  0.00258125411165559  0.00251598497403916
   0.023927656447195 0.000374305906166473       0.002317720565     0.00010478196393  0.00234470940145632  0.00229366643967008
  0.0244365238177129 0.000380243423285052      0.0020803476792     9.6457021844e-05  0.00212529166745617  0.00209180737564026
  0.0249320889846127 0.000386507486982801      0.0018726666643     6.7888537125e-05  0.00193789532973393  0.00192292289224234
  0.0273445847510056 0.000415315501806066      0.0010955754341     5.9930732947e-05  0.00122214725691057  0.00129647507266563
  0.0297305989143549 0.000445097109045376     0.00068822669374     4.2705738675e-05 0.000772241548777796 0.000907103056098177
   0.032134265683219 0.000473906785892251     0.00038205590059     2.9175002901e-05 0.000492628950603164 0.000654109697950245
  0.0345378528999787 0.000503592834031359     0.00027428802073     2.2979616402e-05 0.000324358682668166 0.000484819677441208
  0.0369326725778149 0.000532873233143726     0.00020992013224     1.8887831883e-05 0.000226726123920688 0.000368252560613162
  0.0393317984649537 0.000562150689537205     0.00017878291946     1.6428758375e-05 0.000172230478190947 0.000285332671001727
  0.0417221236419535 0.000591378018376446     0.00015320563905     1.4346369893e-05 0.000143543609532125 0.000225289199516766
  0.0441255687873042  0.00062092062808648      0.0001279583107     1.2505359819e-05 0.000128999826234633 0.000180541734328801
   0.046537749115064 0.000650469819556383     0.00011568876015     1.1358271362e-05 0.000121420346683344 0.000146698499706191
  0.0489279613403256  0.00067956229359879     0.00011474864321     1.0648769035e-05 0.000116365080141491 0.000121015600115953
  0.0513356410621568 0.000709335086811944     0.00011554320753     1.0195096521e-05 0.000111166928397695 0.000100922666261382
  0.0537345621240457 0.000738278197129529     0.00010620211611     9.4326468746e-06 0.000104612606249729 8.51808955032466e-05
  0.0561333806603496 0.000768188893376608      9.531035598e-05      8.564990304e-06 9.62899917477833e-05 7.26613205299139e-05
  0.0585409509166634 0.000797173029425577     8.9509450134e-05     7.8026974421e-06 8.63328002615537e-05 6.25661835339835e-05
  0.0609352798255749 0.000826721443729348     8.0686262219e-05      7.083153203e-06 7.53486808103127e-05 5.44236463791433e-05
  0.0633383710941512  0.00085668703578788     6.3396182875e-05     6.2113913319e-06 6.39240803071454e-05 4.77378792443008e-05
  0.0657457364802705 0.000885648657506964     5.8864371009e-05     5.7986854315e-06 5.28001963591042e-05 4.22163622703723e-05
  0.0681311573572687 0.000915170471098061     4.3237449192e-05     4.9048918192e-06 4.27401890571116e-05 3.76710290633259e-05
  0.0705296424893796 0.000944486368785226     3.9069999344e-05     4.5737667037e-06 3.40922146736407e-05 3.38477382481587e-05
  0.0729412190505191  0.00097413760682471     2.2886647423e-05     3.8596939509e-06 2.71881887585148e-05  3.0613657318976e-05
  0.0753352064093785   0.0010032487191603     1.3195364229e-05     3.4554812735e-06 2.22088664786177e-05 2.78967177262083e-05
  0.0777378664811965  0.00103302706307778     9.8278785225e-06     3.0793513575e-06 1.89866076476466e-05 2.55761039418717e-05
  0.0801317430773059  0.00106194893436142     1.0560895404e-05     2.9954863678e-06 1.72767636340006e-05  2.3598023882246e-05
  0.0825254983966315  0.00109169424305503     7.3038198838e-06     2.8528466054e-06 1.66914385123485e-05 2.18975128745802e-05
  0.0849235786983052  0.00112123340069385     1.4364990167e-05     3.1560665228e-06 1.68097379898114e-05 2.04263977353052e-05
  0.0873259652655817  0.00115044027998523     1.4718536491e-05     2.9334544451e-06 1.72265392427994e-05 1.91486303491838e-05
  0.0897282719488686  0.00118037323821405     1.9323223131e-05     2.9052022651e-06 1.75992245270301e-05 1.80365406228756e-05
  0.0921261242821336  0.00120915194352844     2.1829020468e-05     2.9021092799e-06 1.76869136327417e-05 1.70666280320608e-05
  0.0945282635388502  0.00123889279727289     2.6387221727e-05     3.0360404597e-06 1.73653250375455e-05  1.6214635392552e-05
  0.0969303110817396  0.00126828535382802     2.3026477941e-05     2.7917344254e-06 1.66205472198186e-05 1.54650933323595e-05
  0.0993366328618145  0.00129785023695221     2.1048831586e-05     2.5876682965e-06 1.55259877971175e-05 1.48024422633789e-05
   0.101734136632273  0.00132700322087794     2.3654959422e-05     2.5986886124e-06  1.4221356390427e-05  1.4217887618843e-05
   0.104131546035635  0.00135634334717798     2.3102232492e-05     2.6184681121e-06 1.28563248412955e-05 1.36987876681279e-05
   0.106533220393818  0.00138607526185048     1.7625805761e-05     2.3633800802e-06 1.15709930808175e-05  1.3235723729293e-05
   0.108939198125606  0.00141547578254399     1.0241285549e-05     2.0652306614e-06 1.04735824127652e-05 1.28215985063658e-05
   0.111336298472938  0.00144518693343405     1.0472926816e-05     2.0314368881e-06 9.62919498371617e-06 1.24523202850157e-05
   0.113742067261473  0.00147417497066314     3.7705378133e-06     1.9123760282e-06 9.04194153061942e-06 1.21197960884699e-05
   0.116134584104362  0.00150397438231526     4.2119788252e-06     1.8708917025e-06 8.68676768683591e-06 1.18223923920295e-05
   0.118540135792336  0.00153284850659048     4.7772262071e-06      1.768246704e-06 8.50435963001467e-06 1.15528596523597e-05
   0.120941204434075  0.00156259736757035     4.1814711059e-06     1.7010251012e-06 8.43348025385751e-06 1.13098844659826e-05
   0.123333383045428  0.00159209086733607     4.2081155122e-06     1.7154951149e-06 8.41754302762284e-06 1.10907591099377e-05
   0.125734253184804  0.00162105101011261     3.8468795144e-06      1.706304384e-06 8.41820524970047e-06 1.08912929695624e-05
   0.128134974741319  0.00165088518718245     5.5460512043e-06     1.6199560741e-06 8.41935101745962e-06 1.07100803460021e-05
   0.130535550638587  0.00168008996703361     3.5808722144e-06     1.5352031033e-06 8.42498351098401e-06 1.05451467526138e-05
   0.132936071460732  0.00170973019242677     5.7496188851e-06     1.5860647056e-06 8.45261634268157e-06 1.03947646577382e-05
   0.135327692677765  0.00173873976965488     4.1068299123e-06     1.5922163377e-06 8.52371375841402e-06 1.02579052852097e-05
    0.13773669247927  0.00176850024226833      9.052515487e-06     1.5538679064e-06 8.65627424372977e-06 1.01317957610872e-05
   0.140132431079991  0.00179739542434197     3.7787917517e-06     1.4144475575e-06 8.85394865388758e-06 1.00168873217832e-05
   0.142532433239541  0.00182711591012007     6.3656889147e-06     1.4530216804e-06 9.10823474310367e-06 9.91125243666169e-06
   0.144932303698799  0.00185623976035436     6.6277728644e-06     1.5094158441e-06 9.39533753670459e-06  9.8141792362707e-06
   0.147340781004695  0.00188561194861379     5.1434651907e-06     1.3695784218e-06 9.68367673233206e-06  9.7245361542493e-06
   0.149727242422271  0.00191561471869961     5.5380980098e-06     1.3069808689e-06 9.93495144333043e-06 9.64267647693367e-06
   0.152131070490205  0.00194455723888195     5.5605317465e-06     1.2933826518e-06 1.01237405280916e-05 9.56658476370189e-06
   0.154526013056552  0.00197421125245261     8.7320219425e-06      1.368346308e-06 1.02295282115231e-05  9.4965362235691e-06
   0.156925192655127  0.00200334823427319     5.2535267711e-06     1.2564950505e-06 1.02497936217953e-05 9.43161537940842e-06
   0.159324228701776  0.00203282401782207     6.5245919049e-06     1.2235943709e-06 1.01962784992657e-05 9.37148966398208e-06
   0.161723127930599  0.00206192196907761     5.2701707875e-06     1.2142834813e-06 1.00935249366932e-05 9.31573884490082e-06
   0.164117481507823  0.00209137266745721     2.5255939125e-06     1.2354818678e-06 9.97351474162644e-06 9.26407990070854e-06
   0.166524831504949  0.00212058937378353     4.4740396715e-06     1.2145684228e-06  9.8679689107676e-06 9.21581297767179e-06
   0.168932029727492  0.00215020658425135     1.9674937532e-06     1.1161639995e-06 9.80480553686397e-06 9.17092229240259e-06
   0.171330306854474  0.00217969246431659     4.7382052799e-06     1.1196367763e-06 9.80062493191544e-06 9.12927550012689e-06
   0.173732803971584  0.00220866223182845     4.4456835275e-06     1.1340583214e-06 9.85873414988746e-06 9.09038437707294e-06
    0.17612640251723   0.0022385888280227     6.0693024405e-06     1.1247407892e-06 9.96924466452429e-06 9.05422876399371e-06
   0.178532955213227  0.00226731764851827     7.3154119856e-06     1.0720275246e-06 1.01133071126446e-05 9.02027591428445e-06
   0.180934975811053  0.00229717529074493     5.1053719673e-06     1.0258240586e-06  1.0263986145351e-05 8.98859905861675e-06
   0.183332453835068  0.00232620358921345     5.7134866976e-06      1.053128738e-06  1.0394275660759e-05 8.95901429469046e-06
   0.185716641135546  0.00235542547664568     7.5706810741e-06     1.0742755796e-06 1.04811409322722e-05 8.93145554292665e-06
   0.188122535038336  0.00238488133844359     6.6508701168e-06     9.9718909703e-07 1.05103261982268e-05  8.9053862575454e-06
   0.190515113264413  0.00241409606300522     7.6518170557e-06     9.7847467822e-07 1.04755499176846e-05 8.88106577526564e-06
   0.192925030179623  0.00244355901524553     7.1758317623e-06     9.8290280641e-07 1.03805124225603e-05 8.85806799794983e-06
   0.195321640429298  0.00247262529471363     7.2546848619e-06     1.0039586762e-06 1.02387997924209e-05 8.83658056739728e-06
   0.197718073736679  0.00250221404817404      6.761991461e-06     9.3429785155e-07 1.00678033663769e-05 8.81637588882878e-06
   0.200118717514903  0.00253107008050783     6.6039515386e-06     9.0572936565e-07 9.88675856398115e-06 8.79732887348614e-06
   0.202523527282332  0.00256089859419551     5.6098266576e-06     9.0331526218e-07 9.71370794571292e-06 8.77936273511136e-06
    0.20492377424824  0.00258974424093406      4.067034538e-06     9.3381204702e-07 9.56305917289437e-06 8.76246630054933e-06
   0.207319481390835  0.00261909460922381     4.4327535834e-06     8.6681747877e-07 9.44245018337366e-06 8.74656074798619e-06
   0.209723727129268   0.0026487209934323     3.7242591719e-06     8.2552113387e-07 9.35292400246766e-06 8.73149773916969e-06
   0.212119051136711  0.00267771998470619     4.7652469675e-06     8.3048432913e-07 9.29130614175638e-06 8.71732630256798e-06
   0.214522903686861  0.00270721125257311     4.8673451361e-06     8.5877380353e-07  9.2495165885761e-06 8.70388785231666e-06
   0.216922183398171  0.00273633952556279     6.0231028511e-06     8.1879541304e-07 9.21842705306077e-06 8.69120614369309e-06
   0.219321305763204  0.00276580264084033     5.5103562763e-06      7.757090739e-07 9.18878634181788e-06 8.67920862527892e-06
   0.221728953345111  0.00279473635871425     5.0499710532e-06     7.6806426164e-07 9.15313844468615e-06 8.66781113303817e-06
   0.224118899176323  0.00282424725153729     4.8851298393e-06     7.9382985158e-07 9.10744754259583e-06 8.65709428148773e-06
   0.226526123889936  0.00285307648054985     5.5964440963e-06     7.7285996248e-07 9.04973388824009e-06 8.64686294956854e-06
   0.228924397911291  0.00288245421611648     5.3551533217e-06     7.3140833932e-07 8.98206882680481e-06 8.63719705140094e-06
   0.231322462524496  0.00291182586643917     5.7540369503e-06     7.2556965876e-07 8.90782240780966e-06 8.62802587745752e-06
   0.233720321096173  0.00294112947089107     4.4777496115e-06     7.3559078736e-07 8.83158924935887e-06 8.61931930249542e-06
   0.236122324706317  0.00297059794809815     6.3568285403e-06     7.3823368045e-07 8.75788291559511e-06 8.61103477732753e-06
   0.238524110704496  0.00299925759227721     5.4504108218e-06     6.9060619668e-07 8.69074498863724e-06 8.60316209962875e-06
   0.240916961018214  0.00302898884374123     5.2336374262e-06     6.7580342642e-07 8.63312740397003e-06  8.5957243836549e-06
   0.243318307217394  0.00305791371956201     4.4128662057e-06     6.8579877078e-07 8.58640403499093e-06 8.58878732672978e-06
   0.245723776888901  0.00308728059289475     4.4796996598e-06     6.9151246892e-07 8.55215590352424e-06 8.58281765648216e-06
   0.248124686721574   0.0031161925094779     5.1146264921e-06     6.5402656673e-07 8.53024541390496e-06 8.57837391978177e-06
    0.25052536516507  0.00314553000995695     4.6609131944e-06     6.3619614175e-07 8.51760437958778e-06 8.57546317324075e-06
