# intensity: 0.971280726091511
# background: 2.14345185427622e-06
#           Q (1/A)             dQ (1/A)                    R                   dR               theory              fresnel
  0.0080989212534477 0.000127236983521812        0.94042127662       0.020258761055    0.971282869543368    0.108829996011479
 0.00860775149615609 0.000132733367898001        0.96468354227       0.020226066995    0.971282869543367   0.0925177681724051
 0.00911658138603845 0.000139272231725415        0.97079721644       0.020121600694    0.971282869543369   0.0817315192784664
 0.00960345767116708 0.000144947175946366        0.97337785591       0.020279988109    0.971282869543372   0.0727310550213006
  0.0101013354175092 0.000151457827663979        0.99557930958       0.021085442115     0.97128286954337   0.0646844001810575
  0.0106167495749854 0.000157201861609118        0.99774126173       0.020618389947    0.971282869543366   0.0574062329474003
  0.0111080274433584 0.000163728989843762         0.9987182978       0.020468967469    0.971282869543365   0.0513065667234133
  0.0116015110170897  0.00016921228750936         1.0035928266       0.020685919128    0.971282869543367    0.045925054640772
   0.012108141606583 0.000175728429193344        0.99744285755       0.020907138128    0.971282869543369   0.0410899447708572
  0.0126169678503791 0.000181500535670364         1.0051030258       0.020607493284    0.971282869543367   0.0368197550647927
  0.0131016497836806 0.000187782520381948         1.0068367122       0.020481880295    0.971249265282958   0.0332270676352981
  0.0136039179182447 0.000193733892886013        0.99865338281       0.020430051963    0.914568340338744   0.0299297032626107
  0.0141171270352835 0.000200214366646047        0.94694268522       0.019708224304    0.453015801157279   0.0269507649418363
  0.0146128014132713 0.000206438871011924         0.4818504735      0.0098755600991    0.238174773323413   0.0244002952764059
  0.0151062487803454 0.000212332890664601        0.23204933846      0.0047867014696    0.159212200303874    0.022139312654644
  0.0156129268926257 0.000218533993442238        0.15293694318      0.0032076252777    0.115023927803603   0.0200713071196146
  0.0161173304937564 0.000224469565576804        0.10837367154      0.0023339461332   0.0875364903247506    0.018236821916643
  0.0166107876726924 0.000230982710407065        0.08261240226      0.0017603113986   0.0692862963182901   0.0166318130169667
  0.0171042358382997 0.000236527142519031       0.064198739685      0.0013781846139   0.0562118742176841   0.0151923094534864
  0.0176087028889486 0.000243079981902823       0.051287607468        0.00112058345    0.046315391070436   0.0138720417909127
  0.0181175237433646 0.000248843142317695       0.041878828386     0.00093863990418    0.038745164332713   0.0126773353580071
  0.0186109746429819 0.000255390098569624       0.034897041117     0.00077618690841   0.0330629519758861   0.0116382261221887
  0.0191132033578276 0.000261076815350533       0.029505276495     0.00066166954692   0.0284528401267108      0.0106837691098
  0.0196176605652407 0.000267686907987081       0.024928613123     0.00056922928254   0.0246767034136133  0.00981505029765473
  0.0201089261458694 0.000273424262853686       0.021497382885      0.0005030374581   0.0216553372687749  0.00904963560275198
  0.0206045985018025 0.000279755479112473       0.018389141989     0.00042927877615   0.0191142824488092  0.00834927578436181
  0.0211090188841053 0.000285734042909548       0.016273428581     0.00038170379031   0.0169358238514981  0.00770262914841753
  0.0216178329007679 0.000292305311623581       0.014421171716     0.00034362209324   0.0150669154489021  0.00711057413164046
  0.0221134953479378 0.000298413457881803       0.013088962395     0.00031804765139   0.0135004598467532  0.00658594123822059
  0.0226069402924617 0.000304162453401581       0.011661152119     0.00028326700722   0.0121439587677995  0.00610971377316271
  0.0231179551965418 0.000310359307539323       0.010075319114     0.00024736290961   0.0109130877053705   0.0056597968693381
  0.0236092885336382 0.000316318217719909      0.0091784957403      0.0002283491178  0.00986779915310642  0.00526456638715891
  0.0241092581504628 0.000322833867310627      0.0081872962091      0.0002084304706  0.00892116496016213  0.00489645372441532
  0.0246180653338961 0.000328609706038822      0.0073120193556     0.00018673134825  0.00806136778359419  0.00455412667314725
  0.0251181027380046  0.00033515031510309      0.0066580714925      0.0001521029448  0.00732546373328004  0.00425452210634875
  0.0275151889034949 0.000364137839407013      0.0042495052754     0.00011362611666  0.00456145173722899  0.00309122108182384
  0.0299056316066657 0.000394122034834564      0.0027195620028     7.7930941748e-05  0.00274699827956577   0.0022892752805622
  0.0323071029761429 0.000423105783269422      0.0016858937884     5.3699973091e-05  0.00157776950608328  0.00172612843342474
   0.034706285659298 0.000452685625766771      0.0011925729627     4.0071175213e-05 0.000885883817608235  0.00132453843439509
  0.0371076438816619 0.000482590747973391     0.00091976044572     3.2059828454e-05 0.000544329151108573  0.00103199340331895
  0.0395067869190847 0.000511670268534252     0.00077174902963     2.7475934503e-05 0.000444900238520707 0.000815496864377912
  0.0419080648145969 0.000541482877294406     0.00075220754225     2.5585058445e-05 0.000489043844591144 0.000652435555100843
  0.0443049512581747 0.000570714244933138     0.00072485168396     2.4114167428e-05 0.000592857642255412 0.000528160923004478
  0.0467083213247971 0.000600316045801049     0.00079543796659     2.4606757598e-05  0.00069371795595997 0.000431777931038063
   0.049105120746798 0.000629485964063808     0.00081114203687     2.4149907516e-05   0.0007521341489933 0.000356536777268292
    0.05151063113511 0.000659315417264625      0.0008555855957     2.4553236457e-05 0.000753022014836372 0.000296787074818791
  0.0539116992715578  0.00068834591150894     0.00080413659193     2.2608734135e-05 0.000700353697089181 0.000249122823112865
  0.0563105287957121 0.000717961494859509     0.00073335198344     2.0897064006e-05 0.000611100597808688 0.000210707467484579
  0.0587224697481482 0.000747595513399879     0.00068140540058      1.896895103e-05 0.000506802656874327 0.000179289091775263
  0.0611124424438108 0.000776957396778929      0.0006131613404     1.7162700982e-05 0.000409961247809396 0.000153757161460184
  0.0635198669697312 0.000806946729136193     0.00053954760843     1.5326033451e-05  0.00033421849866984 0.000132508206649881
  0.0659206735470137 0.000835787565791786     0.00048287476174     1.3653208403e-05 0.000287879442410277 0.000114882408793972
  0.0683104281549206 0.000865737549363006     0.00042580296411     1.2280562568e-05 0.000270553306479861 0.000100190758603132
  0.0707111513463926 0.000894903429476799     0.00039580661525     1.1249988092e-05  0.00027608492295186 8.77570835817791e-05
  0.0731161237460806 0.000924551514275202     0.00038830096636     1.0893443758e-05 0.000295420731152004 7.72090699285301e-05
  0.0755035716019917  0.00095371064883377     0.00039346744622     1.0870685222e-05 0.000318491629265326  6.8292615531461e-05
  0.0779084230200058 0.000983153459060011      0.0004075900885     1.0840158047e-05 0.000337172109348062 6.06071831757457e-05
  0.0803066498857018  0.00101272450262288     0.00040001183269     1.0728896632e-05 0.000345383829078565 5.40197248233883e-05
  0.0827069808615995  0.00104230197571737     0.00040545130424     1.0445651016e-05 0.000340357879312526 4.83276798905235e-05
  0.0851006697781144  0.00107197623845448     0.00039828021459     1.0189034031e-05 0.000322158984527088 4.34064101530394e-05
  0.0875030505318866  0.00110090649106936      0.0003922543717     1.0031144408e-05 0.000292921613879583 3.91077001329654e-05
  0.0899075387763072  0.00113103751671456     0.00035479245702     8.9678797134e-06 0.000256428338302798 3.53501205399481e-05
  0.0923031862274917  0.00115986107034811     0.00031591822822     8.2472361537e-06 0.000217326157494692 3.20684424667951e-05
  0.0947053291126627  0.00118983952683228     0.00028313734905      7.295329819e-06 0.000179787448405978 2.91744542303395e-05
  0.0971095438686974  0.00121911072697724     0.00024690532014     6.4597459106e-06 0.000147644837280966  2.6619257542628e-05
  0.0995180851320798  0.00124845911766917     0.00019904836892      5.424663388e-06 0.000123477172114489 2.43544626906181e-05
   0.101904619842814  0.00127796764152617     0.00016484333687      4.563999053e-06 0.000108571860926391 2.23626081028605e-05
    0.10431077548119  0.00130739533076832     0.00014381280847     4.1609406585e-06 0.000102226384428008 2.05752691424085e-05
    0.10671244579723  0.00133714376295378     0.00013369107922     3.7882541235e-06  0.00010277564891329 1.89834944219998e-05
   0.109116219042247   0.0013662016664587      0.0001238101761     3.5172064553e-06 0.000107469902272762 1.75584679734738e-05
   0.111517698910935  0.00139597544610207     0.00011425814612     3.2738804224e-06 0.000113176298287962 1.62820097818928e-05
   0.113921267877298  0.00142493510098509     0.00011148929981     3.1442982976e-06 0.000117018733391524 1.51338047031978e-05
   0.116309393514767  0.00145480649886169     0.00010752316696     3.0998917888e-06 0.000116879690958553 1.41060463545526e-05
   0.118710553303615  0.00148379830232512      0.0001011838457      2.787417455e-06 0.000111745327556959 1.31730331744322e-05
   0.121109415052929  0.00151373692862255     9.6163217378e-05     2.6328526327e-06 0.000101754603860348 1.23298973664116e-05
   0.123512562729805  0.00154328776272309     8.5959313873e-05     2.4067398962e-06 8.79982651457433e-05 1.15644036660375e-05
   0.125909010357393  0.00157225314288064     7.9147492517e-05     2.2544534791e-06 7.22790073210586e-05 1.08712477081551e-05
   0.128311936461094  0.00160198282707073      6.690692774e-05     1.9751979413e-06 5.64210066849589e-05 1.02390069527858e-05
   0.130708155921599   0.0016311582268854      5.394557596e-05     1.6846493848e-06 4.21788797668287e-05 9.66446348841674e-06
   0.133110833483147  0.00166071886466179     4.2612585873e-05     1.4254635042e-06 3.06215426123733e-05  9.1386076323326e-06
   0.135511192325754  0.00168985048199622     3.4312349983e-05     1.2470023337e-06 2.23014139953635e-05 8.65830730265798e-06
   0.137911425180247  0.00171958830879074      2.538842805e-05     1.0331344934e-06 1.71129598769926e-05 8.21852434666503e-06
    0.14031153337429  0.00174855120125041     2.0401880397e-05     9.1307374828e-07  1.4520579074886e-05 7.81521047189902e-06
   0.142709331978708    0.001778427332528     1.5917959945e-05     8.1562884394e-07 1.37617610936157e-05 7.44514040651451e-06
   0.145107002711159  0.00180774448159116     1.3010019891e-05     7.7292419803e-07 1.40391640567196e-05 7.10476117008679e-06
   0.147513292055032  0.00183687606974515     1.1282400833e-05     6.9662102899e-07 1.46740323397343e-05 6.79015544936302e-06
   0.149910692177776  0.00186677155853486     9.6808122521e-06     6.4169653162e-07 1.51652784009772e-05 6.50110645159556e-06
    0.15230356974127   0.0018955050873405     7.8854624893e-06     6.0231484619e-07 1.52200952466403e-05 6.23465212297625e-06
   0.154708711363754  0.00192542362883255      9.572375751e-06      7.136060187e-07 1.47134046552819e-05 5.98703290020755e-06
   0.157099123109689  0.00195451049016441     7.7128434508e-06     6.4288099326e-07 1.36592137553505e-05 5.75922072233164e-06
   0.159503987915984  0.00198402016416502     7.0560157705e-06     5.9835244251e-07 1.21432786347051e-05  5.5467890225732e-06
   0.161908700064758   0.0020133098132782     7.8252182171e-06      5.998961776e-07   1.032589310007e-05 5.34972758462303e-06
   0.164304515263692  0.00204283861795003     6.8132187651e-06     5.8410304876e-07 8.40032589667196e-06 5.16737116899397e-06
   0.166711849601981  0.00207216188421113     5.3332378769e-06     5.3839164187e-07 6.54200265618122e-06 4.99700184723835e-06
    0.16911318354035  0.00210127323242164     5.0752632764e-06     5.1048462117e-07 4.93619326821527e-06 4.83883457669045e-06
   0.171511456297278  0.00213110798567073      3.641740675e-06     4.7418409992e-07  3.7043641444674e-06 4.69165363552667e-06
   0.173909572159068   0.0021600452276707     2.5461663524e-06     4.6118555115e-07 2.90153713722789e-06 4.55438362226924e-06
   0.176304601566224  0.00218967436929705     2.1531124671e-06     4.4401219565e-07 2.51070516908283e-06 4.42639104076792e-06
   0.178708231609502  0.00221859447477937     1.5170202315e-06     4.0551742961e-07  2.4471950838145e-06 4.30635762244648e-06
   0.181097123410173  0.00224819177200832     1.3533541591e-06     3.9106453261e-07 2.58584284787323e-06 4.19477502828003e-06
   0.183503332253881   0.0022774831475014     9.1309153876e-07     3.8963709415e-07 2.79487946338534e-06 4.08955903849287e-06
   0.185897710552495  0.00230693930096677     1.5369394716e-06     3.9833357612e-07  2.9636602945611e-06 3.99146941451896e-06
   0.188309425553262  0.00233627440797502     5.5600684639e-07     3.5733578368e-07 3.03246870413585e-06 3.89883344182207e-06
   0.190697620402008  0.00236526756082816     6.6232133157e-07     3.4654198149e-07 2.99270261721734e-06 3.81274785918592e-06
   0.193111894662431  0.00239497319372101     3.2296415994e-07     3.4434679018e-07  2.8782920933512e-06 3.73101818252547e-06
   0.195502668230634  0.00242399839837065     1.0393211062e-06     3.6114754925e-07 2.74632236089973e-06 3.65495030185262e-06
   0.197899094825101  0.00245362532616864     8.5366250841e-07     3.3259512839e-07 2.64584499077137e-06 3.58322005292474e-06
   0.200304085502403  0.00248266650978515     1.3522113278e-06     3.2716985665e-07 2.60477066826789e-06  3.5154585699498e-06
   0.202700143028329  0.00251209833555314      2.039141174e-06     3.3745829929e-07 2.62137963829469e-06 3.45186478384446e-06
   0.205107680324321  0.00254117086212265     2.4351595507e-06     3.5584701315e-07 2.66920262839125e-06 3.39163289470907e-06
    0.20750044006222  0.00257073410374757     2.3494990003e-06     3.2891939497e-07 2.71049217514092e-06 3.33516451118886e-06
   0.209898858308422  0.00260016097211065     3.3843908233e-06     3.2890629428e-07 2.71358385195361e-06  3.2817352905545e-06
   0.212297072547368   0.0026289988342341      3.246467622e-06     3.2294606415e-07 2.66349081078699e-06 3.23126529594828e-06
   0.214695081871964  0.00265878279801131     2.2574147794e-06     3.1716442649e-07 2.56605221267987e-06 3.18356593993467e-06
   0.217092907525985  0.00268757915425456     2.8860862083e-06     3.0782191184e-07 2.44373047899679e-06 3.13845407953116e-06
   0.219502199945633   0.0027172128690601     2.8046527436e-06     2.9262333271e-07 2.32511259207878e-06 3.09556264188195e-06
   0.221908364754786  0.00274624628905653     1.9230021494e-06     2.7878388829e-07 2.23611813615182e-06 3.05500704097388e-06
   0.224293927049857  0.00277556277910944     1.6226653924e-06     2.8376591525e-07 2.18991147254311e-06 3.01690815147335e-06
   0.226702594600904  0.00280496385839634     1.0134455126e-06     2.6711804934e-07 2.18445826085424e-06 2.98043787251998e-06
   0.229099405743355  0.00283416033217353     6.9608808893e-07      2.490746914e-07 2.20784613946977e-06 2.94601636524546e-06
    0.23149890229378  0.00286348492766244     1.0471486058e-06     2.4855854721e-07 2.24320827272942e-06 2.91331011350383e-06
   0.233901114526479   0.0028925076636001     9.4595012711e-07     2.5350481309e-07 2.27591431595686e-06  2.8822179798359e-06
   0.236300192167535  0.00292224907519218     6.8835615696e-07     2.4649912036e-07  2.2978098985463e-06 2.85271742828134e-06
   0.238699055383681  0.00295081941614943     1.0385543147e-06     2.3526900632e-07 2.30826627705426e-06 2.82467580511843e-06
   0.241097706403263  0.00298054773323331     1.4045927786e-06     2.3392642358e-07 2.31155297780611e-06 2.79807111926902e-06
   0.243490295691813  0.00300948127976379     1.3168568981e-06     2.3735537649e-07 2.31293486928106e-06 2.77335261015464e-06
   0.245897227788509  0.00303864840883636     1.3242815683e-06     2.3891299038e-07 2.31520531557976e-06  2.7519051123878e-06
    0.24829229183516  0.00306797842141096     1.2437939413e-06     2.2434308729e-07 2.31802941665094e-06 2.73597029877292e-06
   0.250698771033389  0.00309710244266105     1.0167351098e-06     2.1750697923e-07 2.32037288076719e-06 2.72552186892632e-06
