#      z (A) rho (1e-6/A2) irho (1e-6/A2)
-23.70894372   2.07057225   0.00000000
-23.60894372   2.07063822   0.00000000
-23.50894372   2.07070671   0.00000000
-23.40894372   2.07077778   0.00000000
-23.30894372   2.07085154   0.00000000
-23.20894372   2.07092806   0.00000000
-23.10894372   2.07100744   0.00000000
-23.00894372   2.07108976   0.00000000
-22.90894372   2.07117513   0.00000000
-22.80894372   2.07126365   0.00000000
-22.70894372   2.07135541   0.00000000
-22.60894372   2.07145051   0.00000000
-22.50894372   2.07154907   0.00000000
-22.40894372   2.07165119   0.00000000
-22.30894372   2.07175698   0.00000000
-22.20894372   2.07186656   0.00000000
-22.10894372   2.07198004   0.00000000
-22.00894372   2.07209754   0.00000000
-21.90894372   2.07221919   0.00000000
-21.80894372   2.07234510   0.00000000
-21.70894372   2.07247541   0.00000000
-21.60894372   2.07261025   0.00000000
-21.50894372   2.07274975   0.00000000
-21.40894372   2.07289405   0.00000000
-21.30894372   2.07304330   0.00000000
-21.20894372   2.07319762   0.00000000
-21.10894372   2.07335718   0.00000000
-21.00894372   2.07352211   0.00000000
-20.90894372   2.07369258   0.00000000
-20.80894372   2.07386873   0.00000000
-20.70894372   2.07405073   0.00000000
-20.60894372   2.07423874   0.00000000
-20.50894372   2.07443293   0.00000000
-20.40894372   2.07463347   0.00000000
-20.30894372   2.07484052   0.00000000
-20.20894372   2.07505426   0.00000000
-20.10894372   2.07527488   0.00000000
-20.00894372   2.07550255   0.00000000
-19.90894372   2.07573747   0.00000000
-19.80894372   2.07597982   0.00000000
-19.70894372   2.07622979   0.00000000
-19.60894372   2.07648758   0.00000000
-19.50894372   2.07675340   0.00000000
-19.40894372   2.07702744   0.00000000
-19.30894372   2.07730990   0.00000000
-19.20894372   2.07760102   0.00000000
-19.10894372   2.07790098   0.00000000
-19.00894372   2.07821002   0.00000000
-18.90894372   2.07852835   0.00000000
-18.80894372   2.07885620   0.00000000
-18.70894372   2.07919379   0.00000000
-18.60894372   2.07954135   0.00000000
-18.50894372   2.07989912   0.00000000
-18.40894372   2.08026734   0.00000000
-18.30894372   2.08064624   0.00000000
-18.20894372   2.08103608   0.00000000
-18.10894372   2.08143709   0.00000000
-18.00894372   2.08184953   0.00000000
-17.90894372   2.08227365   0.00000000
-17.80894372   2.08270970   0.00000000
-17.70894372   2.08315796   0.00000000
-17.60894372   2.08361867   0.00000000
-17.50894372   2.08409210   0.00000000
-17.40894372   2.08457853   0.00000000
-17.30894372   2.08507822   0.00000000
-17.20894372   2.08559145   0.00000000
-17.10894372   2.08611849   0.00000000
-17.00894372   2.08665963   0.00000000
-16.90894372   2.08721514   0.00000000
-16.80894372   2.08778530   0.00000000
-16.70894372   2.08837041   0.00000000
-16.60894372   2.08897075   0.00000000
-16.50894372   2.08958662   0.00000000
-16.40894372   2.09021829   0.00000000
-16.30894372   2.09086608   0.00000000
-16.20894372   2.09153027   0.00000000
-16.10894372   2.09221117   0.00000000
-16.00894372   2.09290906   0.00000000
-15.90894372   2.09362426   0.00000000
-15.80894372   2.09435706   0.00000000
-15.70894372   2.09510776   0.00000000
-15.60894372   2.09587668   0.00000000
-15.50894372   2.09666411   0.00000000
-15.40894372   2.09747037   0.00000000
-15.30894372   2.09829574   0.00000000
-15.20894372   2.09914055   0.00000000
-15.10894372   2.10000510   0.00000000
-15.00894372   2.10088970   0.00000000
-14.90894372   2.10179464   0.00000000
-14.80894372   2.10272025   0.00000000
-14.70894372   2.10366681   0.00000000
-14.60894372   2.10463465   0.00000000
-14.50894372   2.10562405   0.00000000
-14.40894372   2.10663533   0.00000000
-14.30894372   2.10766878   0.00000000
-14.20894372   2.10872470   0.00000000
-14.10894372   2.10980340   0.00000000
-14.00894372   2.11090516   0.00000000
-13.90894372   2.11203029   0.00000000
-13.80894372   2.11317907   0.00000000
-13.70894372   2.11435179   0.00000000
-13.60894372   2.11554874   0.00000000
-13.50894372   2.11677020   0.00000000
-13.40894372   2.11801645   0.00000000
-13.30894372   2.11928776   0.00000000
-13.20894372   2.12058441   0.00000000
-13.10894372   2.12190667   0.00000000
-13.00894372   2.12325480   0.00000000
-12.90894372   2.12462905   0.00000000
-12.80894372   2.12602968   0.00000000
-12.70894372   2.12745695   0.00000000
-12.60894372   2.12891109   0.00000000
-12.50894372   2.13039234   0.00000000
-12.40894372   2.13190094   0.00000000
-12.30894372   2.13343711   0.00000000
-12.20894372   2.13500106   0.00000000
-12.10894372   2.13659302   0.00000000
-12.00894372   2.13821319   0.00000000
-11.90894372   2.13986176   0.00000000
-11.80894372   2.14153893   0.00000000
-11.70894372   2.14324488   0.00000000
-11.60894372   2.14497978   0.00000000
-11.50894372   2.14674381   0.00000000
-11.40894372   2.14853712   0.00000000
-11.30894372   2.15035985   0.00000000
-11.20894372   2.15221215   0.00000000
-11.10894372   2.15409416   0.00000000
-11.00894372   2.15600598   0.00000000
-10.90894372   2.15794773   0.00000000
-10.80894372   2.15991951   0.00000000
-10.70894372   2.16192141   0.00000000
-10.60894372   2.16395351   0.00000000
-10.50894372   2.16601588   0.00000000
-10.40894372   2.16810857   0.00000000
-10.30894372   2.17023163   0.00000000
-10.20894372   2.17238510   0.00000000
-10.10894372   2.17456898   0.00000000
-10.00894372   2.17678330   0.00000000
 -9.90894372   2.17902804   0.00000000
 -9.80894372   2.18130320   0.00000000
 -9.70894372   2.18360874   0.00000000
 -9.60894372   2.18594462   0.00000000
 -9.50894372   2.18831077   0.00000000
 -9.40894372   2.19070715   0.00000000
 -9.30894372   2.19313365   0.00000000
 -9.20894372   2.19559018   0.00000000
 -9.10894372   2.19807663   0.00000000
 -9.00894372   2.20059287   0.00000000
 -8.90894372   2.20313876   0.00000000
 -8.80894372   2.20571415   0.00000000
 -8.70894372   2.20831886   0.00000000
 -8.60894372   2.21095270   0.00000000
 -8.50894372   2.21361548   0.00000000
 -8.40894372   2.21630698   0.00000000
 -8.30894372   2.21902697   0.00000000
 -8.20894372   2.22177519   0.00000000
 -8.10894372   2.22455138   0.00000000
 -8.00894372   2.22735527   0.00000000
 -7.90894372   2.23018656   0.00000000
 -7.80894372   2.23304493   0.00000000
 -7.70894372   2.23593006   0.00000000
 -7.60894372   2.23884161   0.00000000
 -7.50894372   2.24177920   0.00000000
 -7.40894372   2.24474248   0.00000000
 -7.30894372   2.24773104   0.00000000
 -7.20894372   2.25074448   0.00000000
 -7.10894372   2.25378236   0.00000000
 -7.00894372   2.25684425   0.00000000
 -6.90894372   2.25992970   0.00000000
 -6.80894372   2.26303822   0.00000000
 -6.70894372   2.26616933   0.00000000
 -6.60894372   2.26932251   0.00000000
 -6.50894372   2.27249726   0.00000000
 -6.40894372   2.27569302   0.00000000
 -6.30894372   2.27890926   0.00000000
 -6.20894372   2.28214538   0.00000000
 -6.10894372   2.28540082   0.00000000
 -6.00894372   2.28867497   0.00000000
 -5.90894372   2.29196721   0.00000000
 -5.80894372   2.29527691   0.00000000
 -5.70894372   2.29860343   0.00000000
 -5.60894372   2.30194611   0.00000000
 -5.50894372   2.30530426   0.00000000
 -5.40894372   2.30867721   0.00000000
 -5.30894372   2.31206424   0.00000000
 -5.20894372   2.31546465   0.00000000
 -5.10894372   2.31887769   0.00000000
 -5.00894372   2.32230263   0.00000000
 -4.90894372   2.32573870   0.00000000
 -4.80894372   2.32918514   0.00000000
 -4.70894372   2.33264116   0.00000000
 -4.60894372   2.33610597   0.00000000
 -4.50894372   2.33957877   0.00000000
 -4.40894372   2.34305873   0.00000000
 -4.30894372   2.34654502   0.00000000
 -4.20894372   2.35003682   0.00000000
 -4.10894372   2.35353326   0.00000000
 -4.00894372   2.35703349   0.00000000
 -3.90894372   2.36053663   0.00000000
 -3.80894372   2.36404182   0.00000000
 -3.70894372   2.36754817   0.00000000
 -3.60894372   2.37105477   0.00000000
 -3.50894372   2.37456073   0.00000000
 -3.40894372   2.37806513   0.00000000
 -3.30894372   2.38156707   0.00000000
 -3.20894372   2.38506562   0.00000000
 -3.10894372   2.38855984   0.00000000
 -3.00894372   2.39204881   0.00000000
 -2.90894372   2.39553159   0.00000000
 -2.80894372   2.39900723   0.00000000
 -2.70894372   2.40247479   0.00000000
 -2.60894372   2.40593331   0.00000000
 -2.50894372   2.40938185   0.00000000
 -2.40894372   2.41281945   0.00000000
 -2.30894372   2.41624515   0.00000000
 -2.20894372   2.41965799   0.00000000
 -2.10894372   2.42305703   0.00000000
 -2.00894372   2.42644129   0.00000000
 -1.90894372   2.42980982   0.00000000
 -1.80894372   2.43316167   0.00000000
 -1.70894372   2.43649588   0.00000000
 -1.60894372   2.43981150   0.00000000
 -1.50894372   2.44310758   0.00000000
 -1.40894372   2.44638317   0.00000000
 -1.30894372   2.44963734   0.00000000
 -1.20894372   2.45286914   0.00000000
 -1.10894372   2.45607764   0.00000000
 -1.00894372   2.45926192   0.00000000
 -0.90894372   2.46242106   0.00000000
 -0.80894372   2.46555414   0.00000000
 -0.70894372   2.46866027   0.00000000
 -0.60894372   2.47173853   0.00000000
 -0.50894372   2.47478805   0.00000000
 -0.40894372   2.47780794   0.00000000
 -0.30894372   2.48079734   0.00000000
 -0.20894372   2.48375539   0.00000000
 -0.10894372   2.48668123   0.00000000
 -0.00894372   2.48957404   0.00000000
  0.09105628   2.49243298   0.00000000
  0.19105628   2.49525724   0.00000000
  0.29105628   2.49804603   0.00000000
  0.39105628   2.50079856   0.00000000
  0.49105628   2.50351405   0.00000000
  0.59105628   2.50619175   0.00000000
  0.69105628   2.50883092   0.00000000
  0.79105628   2.51143083   0.00000000
  0.89105628   2.51399077   0.00000000
  0.99105628   2.51651004   0.00000000
  1.09105628   2.51898797   0.00000000
  1.19105628   2.52142390   0.00000000
  1.29105628   2.52381718   0.00000000
  1.39105628   2.52616719   0.00000000
  1.49105628   2.52847332   0.00000000
  1.59105628   2.53073499   0.00000000
  1.69105628   2.53295163   0.00000000
  1.79105628   2.53512269   0.00000000
  1.89105628   2.53724764   0.00000000
  1.99105628   2.53932597   0.00000000
  2.09105628   2.54135720   0.00000000
  2.19105628   2.54334087   0.00000000
  2.29105628   2.54527651   0.00000000
  2.39105628   2.54716372   0.00000000
  2.49105628   2.54900209   0.00000000
  2.59105628   2.55079123   0.00000000
  2.69105628   2.55253080   0.00000000
  2.79105628   2.55422045   0.00000000
  2.89105628   2.55585987   0.00000000
  2.99105628   2.55744878   0.00000000
  3.09105628   2.55898690   0.00000000
  3.19105628   2.56047399   0.00000000
  3.29105628   2.56190983   0.00000000
  3.39105628   2.56329422   0.00000000
  3.49105628   2.56462698   0.00000000
  3.59105628   2.56590796   0.00000000
  3.69105628   2.56713704   0.00000000
  3.79105628   2.56831411   0.00000000
  3.89105628   2.56943909   0.00000000
  3.99105628   2.57051192   0.00000000
  4.09105628   2.57153257   0.00000000
  4.19105628   2.57250102   0.00000000
  4.29105628   2.57341729   0.00000000
  4.39105628   2.57428141   0.00000000
  4.49105628   2.57509344   0.00000000
  4.59105628   2.57585346   0.00000000
  4.69105628   2.57656158   0.00000000
  4.79105628   2.57721792   0.00000000
  4.89105628   2.57782264   0.00000000
  4.99105628   2.57837590   0.00000000
  5.09105628   2.57887790   0.00000000
  5.19105628   2.57932886   0.00000000
  5.29105628   2.57972901   0.00000000
  5.39105628   2.58007861   0.00000000
  5.49105628   2.58037795   0.00000000
  5.59105628   2.58062732   0.00000000
  5.69105628   2.58082705   0.00000000
  5.79105628   2.58097748   0.00000000
  5.89105628   2.58107898   0.00000000
  5.99105628   2.58113192   0.00000000
  6.09105628   2.58113672   0.00000000
  6.19105628   2.58109378   0.00000000
  6.29105628   2.58100356   0.00000000
  6.39105628   2.58086650   0.00000000
  6.49105628   2.58068309   0.00000000
  6.59105628   2.58045383   0.00000000
  6.69105628   2.58017921   0.00000000
  6.79105628   2.57985977   0.00000000
  6.89105628   2.57949605   0.00000000
  6.99105628   2.57908862   0.00000000
  7.09105628   2.57863805   0.00000000
  7.19105628   2.57814492   0.00000000
  7.29105628   2.57760985   0.00000000
  7.39105628   2.57703345   0.00000000
  7.49105628   2.57641636   0.00000000
  7.59105628   2.57575922   0.00000000
  7.69105628   2.57506268   0.00000000
  7.79105628   2.57432742   0.00000000
  7.89105628   2.57355412   0.00000000
  7.99105628   2.57274348   0.00000000
  8.09105628   2.57189619   0.00000000
  8.19105628   2.57101297   0.00000000
  8.29105628   2.57009453   0.00000000
  8.39105628   2.56914162   0.00000000
  8.49105628   2.56815498   0.00000000
  8.59105628   2.56713534   0.00000000
  8.69105628   2.56608347   0.00000000
  8.79105628   2.56500012   0.00000000
  8.89105628   2.56388607   0.00000000
  8.99105628   2.56274209   0.00000000
  9.09105628   2.56156896   0.00000000
  9.19105628   2.56036746   0.00000000
  9.29105628   2.55913839   0.00000000
  9.39105628   2.55788252   0.00000000
  9.49105628   2.55660067   0.00000000
  9.59105628   2.55529362   0.00000000
  9.69105628   2.55396218   0.00000000
  9.79105628   2.55260715   0.00000000
  9.89105628   2.55122933   0.00000000
  9.99105628   2.54982952   0.00000000
 10.09105628   2.54840853   0.00000000
 10.19105628   2.54696717   0.00000000
 10.29105628   2.54550622   0.00000000
 10.39105628   2.54402650   0.00000000
 10.49105628   2.54252881   0.00000000
 10.59105628   2.54101393   0.00000000
 10.69105628   2.53948267   0.00000000
 10.79105628   2.53793581   0.00000000
 10.89105628   2.53637415   0.00000000
 10.99105628   2.53479846   0.00000000
 11.09105628   2.53320953   0.00000000
 11.19105628   2.53160812   0.00000000
 11.29105628   2.52999502   0.00000000
 11.39105628   2.52837097   0.00000000
 11.49105628   2.52673674   0.00000000
 11.59105628   2.52509308   0.00000000
 11.69105628   2.52344073   0.00000000
 11.79105628   2.52178043   0.00000000
 11.89105628   2.52011290   0.00000000
 11.99105628   2.51843887   0.00000000
 12.09105628   2.51675905   0.00000000
 12.19105628   2.51507415   0.00000000
 12.29105628   2.51338486   0.00000000
 12.39105628   2.51169186   0.00000000
 12.49105628   2.50999583   0.00000000
 12.59105628   2.50829745   0.00000000
 12.69105628   2.50659737   0.00000000
 12.79105628   2.50489622   0.00000000
 12.89105628   2.50319467   0.00000000
 12.99105628   2.50149332   0.00000000
 13.09105628   2.49979279   0.00000000
 13.19105628   2.49809369   0.00000000
 13.29105628   2.49639661   0.00000000
 13.39105628   2.49470213   0.00000000
 13.49105628   2.49301082   0.00000000
 13.59105628   2.49132325   0.00000000
 13.69105628   2.48963995   0.00000000
 13.79105628   2.48796146   0.00000000
 13.89105628   2.48628831   0.00000000
 13.99105628   2.48462099   0.00000000
 14.09105628   2.48296002   0.00000000
 14.19105628   2.48130588   0.00000000
 14.29105628   2.47965903   0.00000000
 14.39105628   2.47801994   0.00000000
 14.49105628   2.47638906   0.00000000
 14.59105628   2.47476681   0.00000000
 14.69105628   2.47315363   0.00000000
 14.79105628   2.47154993   0.00000000
 14.89105628   2.46995609   0.00000000
 14.99105628   2.46837250   0.00000000
 15.09105628   2.46679953   0.00000000
 15.19105628   2.46523755   0.00000000
 15.29105628   2.46368690   0.00000000
 15.39105628   2.46214790   0.00000000
 15.49105628   2.46062089   0.00000000
 15.59105628   2.45910616   0.00000000
 15.69105628   2.45760402   0.00000000
 15.79105628   2.45611475   0.00000000
 15.89105628   2.45463861   0.00000000
 15.99105628   2.45317586   0.00000000
 16.09105628   2.45172676   0.00000000
 16.19105628   2.45029153   0.00000000
 16.29105628   2.44887040   0.00000000
 16.39105628   2.44746357   0.00000000
 16.49105628   2.44607125   0.00000000
 16.59105628   2.44469363   0.00000000
 16.69105628   2.44333086   0.00000000
 16.79105628   2.44198313   0.00000000
 16.89105628   2.44065058   0.00000000
 16.99105628   2.43933336   0.00000000
 17.09105628   2.43803159   0.00000000
 17.19105628   2.43674540   0.00000000
 17.29105628   2.43547489   0.00000000
 17.39105628   2.43422017   0.00000000
 17.49105628   2.43298132   0.00000000
 17.59105628   2.43175842   0.00000000
 17.69105628   2.43055154   0.00000000
 17.79105628   2.42936074   0.00000000
 17.89105628   2.42818607   0.00000000
 17.99105628   2.42702757   0.00000000
 18.09105628   2.42588527   0.00000000
 18.19105628   2.42475920   0.00000000
 18.29105628   2.42364936   0.00000000
 18.39105628   2.42255576   0.00000000
 18.49105628   2.42147840   0.00000000
 18.59105628   2.42041728   0.00000000
 18.69105628   2.41937236   0.00000000
 18.79105628   2.41834362   0.00000000
 18.89105628   2.41733103   0.00000000
 18.99105628   2.41633455   0.00000000
 19.09105628   2.41535413   0.00000000
 19.19105628   2.41438971   0.00000000
 19.29105628   2.41344123   0.00000000
 19.39105628   2.41250863   0.00000000
 19.49105628   2.41159182   0.00000000
 19.59105628   2.41069073   0.00000000
 19.69105628   2.40980527   0.00000000
 19.79105628   2.40893535   0.00000000
 19.89105628   2.40808087   0.00000000
 19.99105628   2.40724173   0.00000000
 20.09105628   2.40641783   0.00000000
 20.19105628   2.40560904   0.00000000
 20.29105628   2.40481525   0.00000000
 20.39105628   2.40403634   0.00000000
 20.49105628   2.40327219   0.00000000
 20.59105628   2.40252267   0.00000000
 20.69105628   2.40178763   0.00000000
 20.79105628   2.40106696   0.00000000
 20.89105628   2.40036049   0.00000000
 20.99105628   2.39966810   0.00000000
 21.09105628   2.39898964   0.00000000
 21.19105628   2.39832495   0.00000000
 21.29105628   2.39767388   0.00000000
 21.39105628   2.39703628   0.00000000
 21.49105628   2.39641200   0.00000000
 21.59105628   2.39580086   0.00000000
 21.69105628   2.39520272   0.00000000
 21.79105628   2.39461740   0.00000000
 21.89105628   2.39404475   0.00000000
 21.99105628   2.39348460   0.00000000
 22.09105628   2.39293677   0.00000000
 22.19105628   2.39240110   0.00000000
 22.29105628   2.39187743   0.00000000
 22.39105628   2.39136557   0.00000000
 22.49105628   2.39086536   0.00000000
 22.59105628   2.39037662   0.00000000
 22.69105628   2.38989919   0.00000000
 22.79105628   2.38943289   0.00000000
 22.89105628   2.38897754   0.00000000
 22.99105628   2.38853296   0.00000000
 23.09105628   2.38809900   0.00000000
 23.19105628   2.38767547   0.00000000
 23.29105628   2.38726220   0.00000000
 23.39105628   2.38685901   0.00000000
 23.49105628   2.38646574   0.00000000
 23.59105628   2.38608220   0.00000000
 23.69105628   2.38570823   0.00000000
 23.79105628   2.38534366   0.00000000
 23.89105628   2.38498832   0.00000000
 23.99105628   2.38464203   0.00000000
 24.09105628   2.38430463   0.00000000
 24.19105628   2.38397594   0.00000000
 24.29105628   2.38365581   0.00000000
 24.39105628   2.38334407   0.00000000
 24.49105628   2.38304055   0.00000000
 24.59105628   2.38274508   0.00000000
 24.69105628   2.38245752   0.00000000
 24.79105628   2.38217769   0.00000000
 24.89105628   2.38190544   0.00000000
 24.99105628   2.38164061   0.00000000
 25.09105628   2.38138305   0.00000000
 25.19105628   2.38113260   0.00000000
 25.29105628   2.38088910   0.00000000
 25.39105628   2.38065241   0.00000000
 25.49105628   2.38042239   0.00000000
 25.59105628   2.38019887   0.00000000
 25.69105628   2.37998172   0.00000000
 25.79105628   2.37977079   0.00000000
 25.89105628   2.37956594   0.00000000
 25.99105628   2.37936703   0.00000000
 26.09105628   2.37917393   0.00000000
 26.19105628   2.37898649   0.00000000
 26.29105628   2.37880458   0.00000000
 26.39105628   2.37862808   0.00000000
 26.49105628   2.37845684   0.00000000
 26.59105628   2.37829075   0.00000000
 26.69105628   2.37812967   0.00000000
 26.79105628   2.37797349   0.00000000
 26.89105628   2.37782208   0.00000000
 26.99105628   2.37767532   0.00000000
 27.09105628   2.37753309   0.00000000
 27.19105628   2.37739528   0.00000000
 27.29105628   2.37726177   0.00000000
