# intensity: 1
# background: 0
#           Q (1/A)             dQ (1/A)                    R                   dR               theory              fresnel
          0.00877296 8.57369676736154e-05   0.0587691346071005 0.000821826655441093   0.0590970707229235   0.0589469085412844
           0.0100889 9.85973994514066e-05    0.041483353920279 0.000603695544296842   0.0423167521980776   0.0421966795380308
           0.0114048 0.000111457409223373   0.0301184600878423 0.000451105874481222   0.0302931349332218    0.030199514334757
           0.0127208 0.000124318361121249   0.0215892485115968 0.000344818883656485   0.0220890608038007   0.0220171398863321
           0.0140367 0.000137178296537108   0.0153566526206181 0.000268766192656257   0.0163886886467827   0.0163344852210676
           0.0153526 0.000150038188692536   0.0119769410272897 0.000213065930614163    0.012356875214451   0.0123171190866293
           0.0166685 0.000162898033531676  0.00902367958208235 0.000171437380528583  0.00945671648553389  0.00942874032597706
           0.0179845 0.000175758804258743  0.00734272254396038 0.000139765122265652  0.00733698344025208  0.00731861414297522
           0.0193004 0.000188618542293017   0.0056512991261522 0.000115286687942832  0.00576463665461761  0.00575409700880719
           0.0206163 0.000201478220842578  0.00444233053711696 9.60962531342427e-05  0.00458189468199492  0.00457772601539541
           0.0219322 0.000214337835851184  0.00366461961661474  8.0895038259522e-05   0.0036840466382891  0.00368502569930754
           0.0241253 0.000235769723821315  0.00252386361931947 6.18458830105995e-05  0.00261609985091726  0.00262352839849239
           0.0263185   0.0002572023824813  0.00185358949704304 4.82107601628557e-05  0.00189905009734931   0.0019108682446299
           0.0285116 0.000278633838586312  0.00135046949056979 3.82447710408016e-05  0.00140734881659029   0.0014219769613976
           0.0307047 0.000300065050592837  0.00105294554746611 3.08059558989555e-05  0.00106217238216161  0.00107839715171578
           0.0328977 0.000321495022526369 0.000814198311312167 2.51520148362292e-05 0.000814830088951725 0.000831708571949641
           0.0350908 0.000342925690002228 0.000632108550918777 2.07857595056712e-05 0.000634343463665215  0.00065113718484365
           0.0372838 0.000364355079865535 0.000503106663608821 1.73674771228668e-05 0.000500547433995671 0.000516675796431877
           0.0394768 0.000385784150525367 0.000412874781748113 1.46587633056739e-05 0.000399969037606134 0.000414976025897836
           0.0416698  0.00040721288319657 0.000336709028989775 1.24896157566257e-05 0.000323435480091297 0.000336965376658846
           0.0438627 0.000428640281974596 0.000247240315942514 1.07408050929571e-05 0.000264818326713873 0.000276594159910136
           0.0473713 0.000462922940267723 0.000201465303136635 8.58553270603874e-06 0.000196856581724688 0.000205427654475775
           0.0508798 0.000497203583214105 0.000150963324532031 6.99972930069937e-06 0.000150401299084391 0.000155473425927917
           0.0543882 0.000531482133943782 0.000114476163652505 5.81854832493484e-06 0.000118320332377911 0.000119772027337619
           0.0578966 0.000565759492576199  9.8157304946587e-05 4.92623696311431e-06 9.58718782319592e-05 9.37241457240225e-05
           0.0614048  0.00060003362821969 7.93136885127165e-05 4.24268698026314e-06  7.9981180212475e-05 7.43695222401932e-05
           0.0649128 0.000634304464109654 7.18589209277876e-05 3.71124014301136e-06 6.86003804645358e-05 5.97512812132801e-05
           0.0684208 0.000668573877234887 6.66839435067214e-05 3.29120900542205e-06  6.0335864113075e-05 4.85466153915046e-05
           0.0719286 0.000702839836928123 5.79358941847265e-05 2.95317712906055e-06 5.42231612530626e-05 3.98445128396731e-05
           0.0754363  0.00073710324321804 4.57237182815347e-05  2.6757441908067e-06 4.95842934770677e-05 3.30042518214244e-05
           0.0789438 0.000771363042478343 4.02116451560622e-05 2.44337656486775e-06 4.59390794466592e-05 2.75685729355675e-05
           0.0824512 0.000805620134643632  4.1957811676362e-05 2.24480877404345e-06 4.29459164171818e-05 2.32055724610101e-05
           0.0859585 0.000839874442811113 4.23997295897139e-05  2.0718033316395e-06 4.03589578842118e-05 1.96583548120265e-05
            0.087712 0.000856999430181491 3.57948142337147e-05 1.99305006244056e-06 3.91647985115532e-05 1.81417575714737e-05
            0.091219 0.000891247953378265 3.62802199315737e-05  1.8482951611843e-06 3.69023696730597e-05 1.55392311625405e-05
           0.0947258 0.000925492523961103 3.44422938150961e-05 1.71736722987951e-06 3.47181222033927e-05 1.33766090922457e-05
           0.0982324 0.000959733065178519 3.17270937440315e-05 1.59781602571002e-06 3.25581723082031e-05 1.15771401005734e-05
            0.101739  0.00099397145301271 3.00224832085584e-05 1.48779214746684e-06  3.0389319176862e-05 1.00699852994511e-05
            0.105245  0.00102820175250849 2.89460191871838e-05 1.38598486837211e-06 2.81982851949984e-05 8.80024630130161e-06
            0.108751  0.00106242974511247 2.85706765695951e-05 1.29141481946307e-06 2.59852607344856e-05  7.7242835480133e-06
            0.112257   0.0010966553536645 2.53952411878366e-05 1.20337800896383e-06 2.37608811850634e-05 6.80769767705382e-06
            0.115762   0.0011308687400236 2.01517975348192e-05 1.12138120153556e-06 2.15431605080617e-05 6.02321536684265e-06
            0.119268  0.00116508934960268 1.87574178293498e-05 1.04498187313223e-06 1.93522613986854e-05 5.34827766018572e-06
            0.122773  0.00119929758402514 1.87161801641901e-05 9.73918474094633e-07 1.72127242188856e-05 4.76536589506529e-06
            0.126278  0.00123350312701843 1.69515380908546e-05 9.07922040619294e-07 1.51473206627936e-05 4.25969210289381e-06
            0.129782  0.00126769614344654 1.31996050355683e-05 8.46795488778727e-07 1.31787419149904e-05 3.81942056554919e-06
            0.133287   0.0013018960725967 1.24011729343485e-05 7.90313246988509e-07 1.13256830646834e-05 3.43445032430414e-06
            0.136791  0.00133608332224885 1.08562045177643e-05 7.38324971983588e-07 9.60593571552212e-06 3.09684327506793e-06
            0.140295  0.00137026757298047 1.01767201650073e-05 6.90631909342058e-07 8.03209970884944e-06 2.79969517267864e-06
            0.143798  0.00140443899299659 7.15742761901037e-06 6.47058220939004e-07 6.61383593733086e-06 2.53739867571324e-06
            0.147302  0.00143861701473919 6.58117725712407e-06  6.0737999913201e-07 5.35564865603819e-06 2.30503536445278e-06
            0.150805  0.00147278205283279 5.30614318992042e-06 5.71383865107235e-07 4.25718289628389e-06 2.09837734853537e-06
            0.153432  0.00149840122771363 3.91765556974409e-06 5.46724227727142e-07 3.54318513566094e-06 1.95895664175244e-06
             0.15781  0.00154109238113463 2.30050267170144e-06 5.09692060980079e-07 2.54751420189706e-06 1.75161900645248e-06
            0.162187   0.0015837683784041 2.13247826648854e-06 4.77254187985229e-07 1.77347774046794e-06 1.57040607477325e-06
            0.166564  0.00162643882017072 1.72522712079904e-06 4.48944398506273e-07 1.20533330888294e-06 1.41202173042295e-06
            0.170941  0.00166910355507407 7.65878327423325e-07 4.24241569202205e-07 8.17483203655184e-07 1.27310296246581e-06
            0.175317  0.00171175268617424 7.39138368700591e-07 4.02636746839843e-07 5.81755997708267e-07 1.15087574844571e-06
            0.179693  0.00175439581012229 4.82877531097513e-07 3.83633825063557e-07  4.6880102255795e-07 1.04296619824389e-06
            0.184068  0.00179702303265721  2.6999732547514e-07 3.66783768281144e-07 4.49729620017223e-07 9.47429055285861e-07
            0.188442  0.00183963420642077 5.15074743925182e-07 3.51681064581171e-07 4.97200866438072e-07 8.62599947221867e-07
            0.192816  0.00188223892383246 2.10555312808594e-07  3.3797224319472e-07 5.86478114664694e-07 7.87053242507225e-07
            0.197189  0.00192482729493714 5.15799977455903e-07 3.25367576524505e-07 6.96077590159652e-07 7.19611201187787e-07
            0.201562   0.0019674089091114 8.23793764897603e-07 3.13626986714708e-07 8.08292114921756e-07 6.59238845688366e-07
            0.205934  0.00200997387939359 5.66230490092716e-07 3.02567594406714e-07 9.09298181482683e-07 6.05077075678788e-07
            0.210305  0.00205252205858789 1.44977605789108e-06 2.92049462890658e-07 9.89209802157048e-07 5.56374421656074e-07
            0.214676  0.00209506303127677  9.6885366267063e-07 2.81969555649817e-07 1.04184000146386e-06 5.12473646125721e-07
            0.219046  0.00213758691527694 1.20117247814117e-06 2.72261703615096e-07 1.06428095453658e-06 4.72826380744457e-07
            0.223416  0.00218010329175235 1.15271833045829e-06 2.62880795116147e-07  1.0564647958472e-06 4.36939351882836e-07
            0.227785  0.00222260228182847 1.07683781037588e-06 2.53805400478837e-07 1.02058847783421e-06 4.04399721782643e-07
            0.232153  0.00226508373839712 1.06944079882336e-06 2.45025860784766e-07 9.60539514714023e-07 3.74839435191728e-07
             0.23652  0.00230754751440005 6.64553686432045e-07 2.36541993542996e-07 8.81313198748149e-07 3.47936816639133e-07
            0.240887  0.00235000318381663 1.09273575527962e-06 2.28357153567374e-07 7.88451358484519e-07 3.23405458244553e-07
            0.245253  0.00239244087487268 9.14410845590729e-07 2.20481310396694e-07 6.87650854650366e-07 3.01002371343238e-07
            0.249618  0.00243486044053831 8.08504328586561e-07 2.12922477442261e-07 5.84322989380438e-07  2.8051670990782e-07
            0.253982  0.00247726173382167  7.0357774657413e-07 2.05710510427277e-07 4.87905220397929e-07 2.62597808265456e-07
            0.258346  0.00251965432091536 6.66620090793663e-07 1.98991284617356e-07 4.30078704387522e-07 2.52113282318584e-07
