# intensity: 1
# background: 0
#           Q (1/A)             dQ (1/A)                    R                   dR               theory              fresnel
          0.00877296 8.57369676736154e-05   0.0563922763216289 0.000821826655441093   0.0574562911191581   0.0571873585425946
           0.0100889 9.85973994514066e-05   0.0411189490477465 0.000603695544296842   0.0410581416888774   0.0408365140859432
           0.0114048 0.000111457409223373   0.0295865526551939 0.000451105874481222   0.0293414221010131   0.0291613944100247
           0.0127208 0.000124318361121249    0.020973239334806 0.000344818883656485   0.0213665135969162   0.0212206717720393
           0.0140367 0.000137178296537108    0.015881542101872 0.000268766192656257   0.0158366969706968   0.0157188625575176
           0.0153526 0.000150038188692536   0.0118701405920468 0.000213065930614163   0.0119320558591739   0.0118371804431758
           0.0166685 0.000162898033531676  0.00911919521160858 0.000171437380528583  0.00912717189842894   0.0090511570162628
           0.0179845 0.000175758804258743  0.00709574252393376 0.000139765122265652  0.00707928424587468  0.00701880589120391
           0.0193004 0.000188618542293017  0.00564474732698398 0.000115286687942832  0.00556150897838632  0.00551386050902039
           0.0206163 0.000201478220842578   0.0045344821247342 9.60962531342427e-05   0.0044205467556877  0.00438351631452814
           0.0219322 0.000214337835851184  0.00369536444968825  8.0895038259522e-05  0.00355481869198556  0.00352655955414725
           0.0241253 0.000235769723821315  0.00250106306454652 6.18458830105995e-05  0.00252545794832359  0.00250861773735881
           0.0263185   0.0002572023824813  0.00182075971216355 4.82107601628557e-05  0.00183443639025141    0.001825938555181
           0.0285116 0.000278633838586312  0.00142184204940127 3.82447710408016e-05  0.00136053406348774  0.00135803343289701
           0.0307047 0.000300065050592837  0.00107594281720961 3.08059558989555e-05  0.00102773814737388  0.00102944241566629
           0.0328977 0.000321495022526369 0.000772825393915628 2.51520148362292e-05 0.000789137148059573 0.000793658013133053
           0.0350908 0.000342925690002228 0.000615163114710105 2.07857595056712e-05 0.000614903956434976 0.000621155051018327
           0.0372838 0.000364355079865535  0.00048620213945598 1.73674771228668e-05  0.00048563151940916 0.000492756089907161
           0.0394768 0.000385784150525367  0.00038647796497403 1.46587633056739e-05 0.000388356639942476 0.000395676467087532
           0.0416698  0.00040721288319657 0.000339256604080188 1.24896157566257e-05 0.000314254585826157 0.000321232617759052
           0.0438627 0.000428640281974596 0.000257597235393818 1.07408050929571e-05 0.000257430294073298 0.000263637023366319
           0.0473713 0.000462922940267723 0.000204349857861606 8.58553270603874e-06 0.000191438731538084 0.000195761658641322
           0.0508798 0.000497203583214105 0.000150882248998356 6.99972930069937e-06  0.00014623273906361 0.000148131439205697
           0.0543882 0.000531482133943782 0.000121042153197793 5.81854832493484e-06 0.000114944409730996 0.000114099241555958
           0.0578966 0.000565759492576199  9.2743873253195e-05 4.92623696311431e-06  9.3003533905192e-05 8.92741963948373e-05
           0.0614048  0.00060003362821969 7.73289705581125e-05 4.24268698026314e-06 7.74434903374226e-05 7.08312776251137e-05
           0.0649128 0.000634304464109654 6.68434762272304e-05 3.71124014301136e-06 6.62857368856986e-05 5.69035982482354e-05
           0.0684208 0.000668573877234887 6.20598902351955e-05 3.29120900542205e-06  5.8181491510755e-05 4.62295187257804e-05
           0.0719286 0.000702839836928123 5.20570401518998e-05 2.95317712906055e-06 5.21952624595533e-05 3.79403487851137e-05
           0.0754363  0.00073710324321804 4.67234559141587e-05  2.6757441908067e-06 4.76675811334172e-05  3.1425251034602e-05
           0.0789438 0.000771363042478343 4.28548185381589e-05 2.44337656486775e-06 4.41296848940688e-05 2.62483661237642e-05
           0.0824512 0.000805620134643632 4.29188759932189e-05 2.24480877404345e-06 4.12465335833022e-05  2.2093369873129e-05
           0.0859585 0.000839874442811113 3.96892129059996e-05  2.0718033316395e-06 3.87753214394611e-05 1.87154627172968e-05
            0.087712 0.000856999430181491 3.82498134340561e-05 1.99305006244056e-06  3.7641641251471e-05 1.72713125243241e-05
            0.091219 0.000891247953378265 3.55797554992245e-05  1.8482951611843e-06  3.5505196537049e-05 1.47932017499194e-05
           0.0947258 0.000925492523961103 3.45834936486884e-05 1.71736722987951e-06 3.34520092477775e-05 1.27340525963506e-05
           0.0982324 0.000959733065178519 2.91452686889798e-05 1.59781602571002e-06 3.14262366886667e-05 1.10207486130855e-05
            0.101739  0.00099397145301271 2.93421372523976e-05 1.48779214746684e-06 2.93921052693847e-05 9.58581253927507e-06
            0.105245  0.00102820175250849 2.89327562637884e-05 1.38598486837211e-06 2.73335574691852e-05 8.37695449501962e-06
            0.108751  0.00106242974511247 2.57465816579798e-05 1.29141481946307e-06 2.52480890133393e-05 7.35261111663749e-06
            0.112257   0.0010966553536645 2.45942694709012e-05 1.20337800896383e-06 2.31438225491443e-05 6.48002132490958e-06
            0.115762   0.0011308687400236 2.16367358798292e-05 1.12138120153556e-06 2.10365571048674e-05 5.73321189845885e-06
            0.119268  0.00116508934960268 1.95142416045968e-05 1.04498187313223e-06 1.89447495306581e-05 5.09070040904734e-06
            0.122773  0.00119929758402514 1.69712294912252e-05 9.73918474094633e-07  1.6891584282022e-05 4.53580465752364e-06
            0.126278  0.00123350312701843 1.71645741548835e-05 9.07922040619294e-07 1.48990578535363e-05 4.05444342463472e-06
            0.129782  0.00126769614344654 1.45804757811583e-05 8.46795488778727e-07 1.29895354627015e-05 3.63534695818088e-06
            0.133287   0.0013018960725967   1.272084722413e-05 7.90313246988509e-07 1.11819076974131e-05  3.2688977036109e-06
            0.136791  0.00133608332224885 1.13945304491039e-05 7.38324971983588e-07 9.49453404278118e-06 2.94753757222073e-06
            0.140295  0.00137026757298047 9.08672194151319e-06 6.90631909342058e-07  7.9409994874598e-06 2.66469308395071e-06
            0.143798  0.00140443899299659 7.81523464753094e-06 6.47058220939004e-07  6.5322456981141e-06 2.41502562810882e-06
            0.147302  0.00143861701473919 6.85028198437113e-06  6.0737999913201e-07 5.27430390355655e-06 2.19385264997847e-06
            0.150805  0.00147278205283279 5.74715477749355e-06 5.71383865107235e-07 4.16857852263962e-06 1.99714908953721e-06
            0.153432  0.00149840122771363 4.54452349791615e-06 5.46724227727142e-07 3.44511285073478e-06 1.86444529478322e-06
             0.15781  0.00154109238113463 3.18597558638618e-06 5.09692060980079e-07 2.42840545719978e-06 1.66709845827048e-06
            0.162187   0.0015837683784041 2.01406064830961e-06 4.77254187985229e-07 1.62992851851578e-06 1.49461927055794e-06
            0.166564  0.00162643882017072 1.62604614513885e-06 4.48944398506273e-07  1.0368242964492e-06 1.34386991926393e-06
            0.170941  0.00166910355507407 1.15155245774236e-06 4.24241569202205e-07 6.26165703684171e-07 1.21164900898925e-06
            0.175317  0.00171175268617424 8.36941955131746e-07 4.02636746839843e-07 3.71925547550134e-07 1.09531586935586e-06
            0.179693  0.00175439581012229 2.55145556497997e-07 3.83633825063557e-07 2.46295326206426e-07 9.92610770747138e-07
            0.184068  0.00179702303265721 -1.33062988898773e-07 3.66783768281144e-07 2.21325401980719e-07 9.01682025161719e-07
            0.188442  0.00183963420642077  3.9811126557465e-07 3.51681064581171e-07 2.70021452953897e-07 8.20945342608223e-07
            0.192816  0.00188223892383246 7.35430348800379e-07  3.3797224319472e-07 3.67465050177422e-07 7.49043706045397e-07
            0.197189  0.00192482729493714 7.07395242219106e-07 3.25367576524505e-07 4.91541237984297e-07 6.84856068722015e-07
            0.201562   0.0019674089091114 5.04592541636019e-07 3.13626986714708e-07 6.23570900277712e-07 6.27397288270577e-07
            0.205934  0.00200997387939359 4.93827586925484e-07 3.02567594406714e-07 7.48516029577975e-07 5.75849636624869e-07
            0.210305  0.00205252205858789 6.93092873714565e-07 2.92049462890658e-07 8.55157445056459e-07 5.29497841526952e-07
            0.214676  0.00209506303127677 1.17908407559872e-06 2.81969555649817e-07 9.35965994833694e-07 4.87716330333101e-07
            0.219046  0.00213758691527694 1.21412130364273e-06 2.72261703615096e-07 9.86756563514098e-07 4.49983157069645e-07
            0.223416  0.00218010329175235 8.43434896269303e-07 2.62880795116147e-07 1.00635039478952e-06 4.15828821148795e-07
            0.227785  0.00222260228182847 1.01997986580627e-06 2.53805400478837e-07 9.96030439200592e-07 3.84860382939394e-07
            0.232153  0.00226508373839712  1.5789871952888e-06 2.45025860784766e-07  9.5902113076138e-07 3.56727529999966e-07
             0.23652  0.00230754751440005 1.24599799080029e-06 2.36541993542996e-07 8.99911830111635e-07 3.31124095893438e-07
            0.240887  0.00235000318381663  1.1149423659571e-06 2.28357153567374e-07 8.24091266170932e-07 3.07777483509992e-07
            0.245253  0.00239244087487268 8.22482661725918e-07 2.20481310396694e-07 7.37325249426076e-07 2.86456421955093e-07
            0.249618  0.00243486044053831 8.16504027981227e-07 2.12922477442261e-07 6.45283516913415e-07  2.6696023388512e-07
            0.253982  0.00247726173382167 8.71594374469561e-07 2.05710510427277e-07 5.57464618010053e-07  2.4990687344858e-07
            0.258346  0.00251965432091536 4.78296073840953e-07 1.98991284617356e-07 5.04178444034123e-07 2.39928801963813e-07
