# intensity: 1
# background: 0
#           Q (1/A)             dQ (1/A)                    R                   dR               theory              fresnel
          0.00877296 8.57369676736154e-05   0.0331352603895872 0.000614051069758991   0.0424939167971449   0.0419950503515563
           0.0100889 9.85973994514066e-05   0.0224858755411307 0.000443918376177684   0.0297123752339626   0.0292878535688955
           0.0114048 0.000111457409223373   0.0160689451807373 0.000327808107676216   0.0208402979489467   0.0204794567665193
           0.0127208 0.000124318361121249   0.0111979503595914 0.000248750833761992   0.0149538846616649   0.0146443454740736
           0.0140367 0.000137178296537108  0.00803256905513082 0.000193219838612407   0.0109584542483102    0.010690380386943
           0.0153526 0.000150038188692536  0.00639052058896444 0.000153149484242887  0.00818702339564311  0.00795266887203524
           0.0166685 0.000162898033531676  0.00486950192271785 0.000123551519251737  0.00622545614830803  0.00601871824335816
           0.0179845 0.000175758804258743  0.00370307703547934 0.000101234099966858  0.00481081798535854  0.00462686970457343
           0.0193004 0.000188618542293017  0.00301143097193109 8.41005297270757e-05  0.00377302826135024  0.00360802267629551
           0.0206163 0.000201478220842578  0.00245294841460278 7.07309361586013e-05  0.00299944827946499  0.00285030050882299
           0.0219322 0.000214337835851184  0.00202302234512805 6.01700777539503e-05  0.00241656188961923  0.00228074051571605
           0.0241253 0.000235769723821315  0.00143036206593704 4.69540106999985e-05  0.00172833928684463  0.00161041978299851
           0.0263185   0.0002572023824813  0.00114574826035233 3.74832867009941e-05  0.00126926253678333  0.00116518303170232
           0.0285116 0.000278633838586312 0.000860878843734091 3.05300733127846e-05 0.000955704704766018  0.00086243135750018
           0.0307047 0.000300065050592837 0.000739043393185233 2.53014940718828e-05 0.000735930843324598 0.000651188395658835
           0.0328977 0.000321495022526369 0.000618008835301914 2.12870497801285e-05 0.000578355569102346  0.00050041078666697
           0.0350908 0.000342925690002228 0.000504833644326511 1.81471760122314e-05 0.000463069164054022 0.000390585373430574
           0.0372838 0.000364355079865535 0.000398020200677226 1.56509330278236e-05 0.000377206451001376  0.00030914109167353
           0.0394768 0.000385784150525367 0.000349067562742721  1.3636925136056e-05 0.000312221532354235 0.000247755446440656
           0.0416698 0.000407212883196571 0.000269558989370724  1.1990265469852e-05 0.000262322716037959  0.00020080855075397
           0.0438627 0.000428640281974596  0.00026193242727742  1.0630105156392e-05 0.000223653901981972 0.000164570779660697
           0.0473713 0.000462922940267723 0.000222958146670743 8.89543862473238e-06 0.000177967053259009 0.000121970008273769
           0.0508798 0.000497203583214105  0.00018355892727276 7.55630567423862e-06 0.000145767382430967  9.2151020496253e-05
           0.0543882 0.000531482133943782 0.000158680835076636 6.50166472175263e-06 0.000122602979673244 7.08899222220778e-05
           0.0578966 0.000565759492576199 0.000137373730367806 5.65470988016372e-06 0.000105518523107194 5.54077550916008e-05
           0.0614048  0.00060003362821969 0.000121506567185216 4.96275224905702e-06 9.26006354343081e-05 4.39224446640451e-05
           0.0649128 0.000634304464109654 0.000111320951184282 4.38864680783683e-06 8.25766242052908e-05 3.52595614265579e-05
           0.0684208 0.000668573877234887 9.06555092418178e-05 3.90577392358481e-06 7.45816517320189e-05 2.86272599729195e-05
           0.0719286 0.000702839836928123 8.55535868154802e-05 3.49471741925985e-06 6.80187290212408e-05 2.34813827466111e-05
           0.0754363  0.00073710324321804  7.6239135861515e-05 3.14102251940302e-06 6.24691360788422e-05 1.94399382705667e-05
           0.0789438 0.000771363042478343 7.06579057466464e-05  2.8338188162619e-06 5.76374650201037e-05 1.62307508414974e-05
           0.0824512 0.000805620134643632 6.37736132552275e-05 2.56478562282198e-06 5.33143354358764e-05 1.36565381741204e-05
           0.0859585 0.000839874442811113 5.95534446409355e-05 2.32732567242402e-06 4.93473335995984e-05 1.15648263978915e-05
            0.087712 0.000856999430181491 5.61487330393915e-05 2.21896365075281e-06 4.74676633433504e-05 1.06708758627336e-05
            0.091219 0.000891247953378265 5.12811286171894e-05 2.02039658963257e-06 4.38717349819594e-05 9.13739083046559e-06
           0.0947258 0.000925492523961103 4.27546482580222e-05 1.84271422552988e-06 4.04344116124838e-05 7.86362876010011e-06
           0.0982324 0.000959733065178519 3.97349380133896e-05 1.68325044593878e-06 3.71265284349096e-05 6.80416125217771e-06
            0.101739  0.00099397145301271 4.00369057897844e-05 1.53968251183987e-06 3.39287537433291e-05  5.9171000384285e-06
            0.105245  0.00102820175250849 3.44656272317791e-05 1.41014397531074e-06 3.08341125517848e-05 5.17000259930918e-06
            0.108751  0.00106242974511247 2.69716885152128e-05  1.2930415379737e-06 2.78428883266166e-05 4.53709568324172e-06
            0.112257   0.0010966553536645 2.59333262335403e-05 1.18707178137908e-06 2.49616670071719e-05 3.99807336358931e-06
            0.115762   0.0011308687400236 2.10910960827277e-05 1.09115648348827e-06 2.22014774754304e-05 3.53684333795443e-06
            0.119268  0.00116508934960268 1.91560930003578e-05 1.00430085241202e-06 1.95729709875642e-05 3.14010184970331e-06
            0.122773  0.00119929758402514 1.71997547609361e-05  9.2574068579407e-07 1.70904791953759e-05  2.7975203080533e-06
            0.126278  0.00123350312701843 1.55217454506809e-05 8.54738634216562e-07 1.47655796767737e-05 2.50038404633725e-06
            0.129782  0.00126769614344653 1.10978396182028e-05 7.90679406923095e-07 1.26098647249317e-05 2.24172003068641e-06
            0.133287   0.0013018960725967  1.1333000594031e-05 7.32956049019094e-07 1.06310940874732e-05 2.01557958853857e-06
            0.136791  0.00133608332224885 9.47916264071498e-06 6.81080771476536e-07  8.8369143104634e-06 1.81728850927568e-06
            0.140295  0.00137026757298047 6.80347493579037e-06 6.34553005945387e-07 7.23048524201255e-06 1.64278279214583e-06
            0.143798  0.00140443899299659 5.91047407869047e-06 5.92928326919355e-07 5.81300965097658e-06 1.48876240020438e-06
            0.147302  0.00143861701473919 4.32310847801496e-06  5.5574993032618e-07 4.58154524676697e-06 1.35233363440237e-06
            0.150805  0.00147278205283279 4.03375877609061e-06 5.22596212039555e-07 3.52911870344746e-06 1.23100953535967e-06
            0.153432  0.00149840122771363 2.66017662404104e-06 5.00196721847065e-07 2.85939619205696e-06 1.14916594624041e-06
             0.15781  0.00154109238113463  1.6880595781762e-06 4.66988385684785e-07 1.94996290550942e-06 1.02746419028295e-06
            0.162187   0.0015837683784041 2.09116246421697e-06 4.38240254443984e-07 1.27088627306955e-06 9.21107556048939e-07
            0.166564  0.00162643882017072 1.28338643450878e-06 4.13337933293168e-07 8.01298510403538e-07 8.28158214928545e-07
            0.170941  0.00166910355507407 6.49113122334329e-07  3.9166220753793e-07 5.11419528809451e-07 7.46639595235984e-07
            0.175317  0.00171175268617424 4.49035069361905e-07 3.72658463145768e-07 3.70007124045007e-07 6.74921541970932e-07
            0.179693  0.00175439581012229 2.46225661598813e-07  3.5582951649974e-07 3.45531928390575e-07  6.1160929530851e-07
            0.184068  0.00179702303265721 1.82554800459131e-07 3.40755700177033e-07 4.07493618722131e-07 5.55560060361506e-07
            0.188442  0.00183963420642077 8.49580922504551e-08 3.27081598321799e-07  5.2738659981427e-07 5.05796200807136e-07
            0.192816  0.00188223892383246 -1.05053786566826e-07 3.14514262988809e-07 6.79621275712849e-07 4.61480428625013e-07
            0.197189  0.00192482729493714 8.82782528964567e-07 3.02826077538965e-07 8.42053886753536e-07 4.21921101414927e-07
            0.201562   0.0019674089091114 4.81517734529373e-07 2.91836162631304e-07 9.96539425289346e-07 3.86510499710034e-07
            0.205934  0.00200997387939359 6.97167797134112e-07 2.81413446334902e-07 1.12899639522379e-06 3.54744209719948e-07
            0.210305  0.00205252205858789 5.01493059129104e-07 2.71461189352983e-07 1.22952194178759e-06 3.26181060879223e-07
            0.214676  0.00209506303127677 4.71035881793828e-07 2.61910323833345e-07 1.29217745358134e-06 3.00435243280949e-07
            0.219046  0.00213758691527694 7.42255537305511e-07 2.52719458426314e-07 1.31459221273007e-06 2.77184871044048e-07
            0.223416  0.00218010329175235 7.27815869556649e-07 2.43860368719864e-07 1.29755331361535e-06 2.56140429774148e-07
            0.227785  0.00222260228182847 9.06681371323211e-07 2.35321484131506e-07 1.24443024567154e-06 2.37059624599768e-07
            0.232153  0.00226508373839712 1.09116797124347e-06 2.27097512486025e-07 1.16057481284493e-06 2.19726462037777e-07
             0.23652  0.00230754751440005 2.94711696765423e-07   2.191882219558e-07  1.0526896420634e-06 2.03952178725236e-07
            0.240887  0.00235000318381663 7.50994433179159e-07 2.11594055858565e-07  9.2818895422143e-07 1.89568719208687e-07
            0.245253  0.00239244087487268 8.68380041616497e-07 2.04319463504531e-07 7.94744593816302e-07 1.76433509262661e-07
            0.249618  0.00243486044053831 2.94198038948607e-07 1.97365998662997e-07 6.59730674119977e-07 1.64422840020444e-07
            0.253982  0.00247726173382167 3.27666524207108e-07 1.90750275600602e-07  5.3562638886987e-07 1.53917314499079e-07
            0.258346  0.00251965432091536  2.2180679531638e-07 1.84569519248743e-07 4.62158694290156e-07 1.47770532904221e-07
