# intensity: 1
# background: 0
#           Q (1/A)             dQ (1/A)                    R                   dR               theory              fresnel
          0.00877296 8.57369676736154e-05    0.332437686494599  0.00196793752611712    0.331893583600993    0.349308829260877
           0.0100889 9.85973994514066e-05   0.0917653323438457 0.000899795171291399   0.0920115106851327   0.0881938144492701
           0.0114048 0.000111457409223373   0.0389832523283393 0.000516200703643253   0.0388133135539415   0.0393708138483988
           0.0127208 0.000124318361121249   0.0200093421191278 0.000336450524326376   0.0205799668109746   0.0212543745252355
           0.0140367 0.000137178296537108   0.0121043754966927 0.000234841674415395   0.0122506920935617   0.0127635202252873
           0.0153526 0.000150038188692536  0.00771225859765376 0.000171907290502519  0.00788187909223858  0.00822573282927059
           0.0166685 0.000162898033531676  0.00535926167871998 0.000130534496381555  0.00537765028471179  0.00558023101219471
           0.0179845 0.000175758804258743  0.00407140836479658 0.000102136621213416  0.00384808550697738  0.00393747260967222
           0.0193004 0.000188618542293017  0.00289005368794703 8.19912687429484e-05  0.00286776591180285  0.00286704505930763
           0.0206163 0.000201478220842578  0.00223884227317839 6.73128657966352e-05   0.0022148214754108   0.0021421080069148
           0.0219322 0.000214337835851184  0.00182893688484378  5.6408042769887e-05  0.00176794873906537  0.00163541324882199
           0.0241253 0.000235769723821315  0.00134855253170985 4.36721558376927e-05  0.00129210511231542  0.00108517713787134
           0.0263185   0.0002572023824813 0.000928410045663256 3.51986271646474e-05  0.00100709398981097 0.000749848110751326
           0.0285116 0.000278633838586312 0.000846691774846651 2.93424552013562e-05 0.000828688225435369 0.000535478871173329
           0.0307047 0.000300065050592837 0.000697349699934368 2.51261711479863e-05 0.000711599239469199 0.000392978393669039
           0.0328977 0.000321495022526369 0.000620225028143362 2.19705327948429e-05 0.000631231415290481 0.000295131666587419
           0.0350908 0.000342925690002228 0.000564527738361132 1.95215312697923e-05 0.000573562952679174 0.000226068316738166
           0.0372838 0.000364355079865535  0.00055910119174863 1.75579865563577e-05 0.000530299245745276 0.000176162010702165
           0.0394768 0.000385784150525367 0.000491988226633717 1.59380531624162e-05 0.000496362514259972 0.000139349900574431
           0.0416698 0.000407212883196571 0.000466288423403725 1.45688304423468e-05 0.000468567351715821 0.000111703278160729
           0.0438627 0.000428640281974596 0.000433420076643573 1.33887498378867e-05 0.000444918328411815 9.06074533687078e-05
           0.0473713 0.000462922940267723 0.000404089749054317 1.17900402445873e-05 0.000412418649584857 6.62380637624258e-05
           0.0508798 0.000497203583214105 0.000402692502299093 1.04531677410859e-05  0.00038379899195241 4.95555495145018e-05
           0.0543882 0.000531482133943782 0.000363633877207459 9.31042262901807e-06 0.000357426394823718 3.78198273641194e-05
           0.0578966 0.000565759492576199 0.000327543510397067  8.3177703931808e-06 0.000332411230855825 2.93673070469198e-05
           0.0614048  0.00060003362821969 0.000299007879772079 7.44567176043413e-06 0.000308317676330461 2.31535387726488e-05
           0.0649128 0.000634304464109654  0.00028143675602884 6.67318958117545e-06 0.000284957810221142 1.85021697826747e-05
           0.0684208 0.000668573877234887 0.000263915128305755 5.98486986612678e-06   0.0002622804396208 1.49638077200971e-05
           0.0719286 0.000702839836928123 0.000242783613002551 5.36895842821082e-06 0.000240311564502016 1.22333866565722e-05
           0.0754363  0.00073710324321804 0.000216242049203746 4.81612608475776e-06 0.000219112667440507 1.00989919916477e-05
           0.0789438 0.000771363042478343 0.000196847146911899 4.31888355046932e-06 0.000198761666954853 8.41097692517648e-06
           0.0824512 0.000805620134643632  0.00017328170762273  3.8709805148191e-06 0.000179337039169069 7.06171270667017e-06
           0.0859585 0.000839874442811113 0.000163464776265409  3.4669253306241e-06 0.000160886525746749 5.97272831210894e-06
            0.087712 0.000856999430181491  0.00015866053483381 3.28016077516862e-06 0.000152069558754624 5.50710780773259e-06
            0.091219 0.000891247953378265 0.000137699709953934 2.93456643275164e-06 0.000135278132101092 4.70446592832179e-06
           0.0947258 0.000925492523961103   0.0001206651084621 2.62272297858918e-06 0.000119589076312942 4.04300317719164e-06
           0.0982324 0.000959733065178519  0.00010565611999649 2.34171491984471e-06 0.000105051052415494 3.49391891821942e-06
            0.101739  0.00099397145301271 9.00183208185869e-05 2.08870004122306e-06 9.16722970971335e-05 3.03502054124587e-06
            0.105245  0.00102820175250849 8.16588587409115e-05 1.86120982976429e-06 7.94496617438764e-05 2.64915283968054e-06
            0.108751  0.00106242974511247 6.81102197299271e-05 1.65696081101176e-06 6.83620176784801e-05  2.3227380494755e-06
            0.112257   0.0010966553536645 5.69276009435236e-05  1.4739329390626e-06 5.83784275678312e-05 2.04510930396206e-06
            0.115762   0.0011308687400236 4.87283281517521e-05 1.31034779772345e-06 4.94598088430246e-05 1.80783093370169e-06
            0.119268  0.00116508934960268 4.13343664417388e-05 1.16445917020771e-06 4.15506025584661e-05 1.60394946883992e-06
            0.122773  0.00119929758402514 3.40471897974397e-05 1.03484589724762e-06 3.45976143969197e-05 1.42807490249603e-06
            0.126278  0.00123350312701843 2.82890632221364e-05 9.20086989436393e-07 2.85352413687282e-05 1.27566873711811e-06
            0.129782  0.00126769614344653 2.28247983074796e-05 8.18945371946926e-07 2.32977322944926e-05 1.14310523910854e-06
            0.133287   0.0013018960725967 1.94066443026467e-05  7.3019360268934e-07 1.88125912580048e-05 1.02729789868458e-06
            0.136791  0.00133608332224885 1.50549191510224e-05   6.527915072512e-07 1.50119596095985e-05 9.25823800959066e-07
            0.140295  0.00137026757298047 1.11788568450226e-05  5.8568188427691e-07 1.18244595392776e-05 8.36579348816035e-07
            0.143798  0.00140443899299659 9.46326036404588e-06 5.27896969537806e-07  9.1822794656988e-06 7.57858271606188e-07
            0.147302  0.00143861701473919 7.65238827140886e-06 4.78455197817209e-07 7.01790298115107e-06 6.88166699567777e-07
            0.150805  0.00147278205283279 5.15538799413396e-06 4.36389525737721e-07 5.26468042004802e-06 6.26323981267472e-07
            0.153432  0.00149840122771363 4.43665850704545e-06 4.09300606902536e-07 4.19615892330055e-06   5.844555808351e-07
             0.15781  0.00154109238113463 2.61652272453483e-06 3.71344523754233e-07  2.8014343659916e-06 5.22161081560043e-07
            0.162187   0.0015837683784041 1.78263673965375e-06 3.40741901318725e-07 1.79014848374132e-06 4.67963016075736e-07
            0.166564  0.00162643882017072  8.0638918477111e-07  3.1613823167528e-07 1.08915621511464e-06 4.20619548066675e-07
            0.170941  0.00166910355507407 3.40510309998586e-07 2.96180377878463e-07 6.24918424460562e-07 3.79115959046953e-07
            0.175317  0.00171175268617424 3.29140163841139e-07  2.7972334939359e-07 3.35738404872923e-07  3.4261639841548e-07
            0.179693  0.00175439581012229 3.69817104237763e-07 2.65833978821186e-07 1.70937945024267e-07 3.10406410231048e-07
            0.184068  0.00179702303265721 4.01149014974934e-07 2.53798202299118e-07 9.02271211629641e-08 2.81901027837874e-07
            0.188442  0.00183963420642077 2.05899292941631e-07   2.430861206716e-07 6.24468374951443e-08 2.56600011768491e-07
            0.192816  0.00188223892383246 -1.45883595516729e-07 2.33321101639058e-07  6.4436855785614e-08 2.34075373452051e-07
            0.197189  0.00192482729493714 1.45908341330594e-07 2.24252374189374e-07 7.97889022483844e-08 2.13973692885481e-07
            0.201562   0.0019674089091114 -3.55306547837136e-08 2.15714861326062e-07 9.76222755853126e-08 1.95984614872315e-07
            0.205934  0.00200997387939359 -3.92870617165847e-07 2.07611342615293e-07 1.11420550391744e-07 1.79850675874605e-07
            0.210305  0.00205252205858789 4.97632973058593e-07 1.99885547266558e-07 1.17991117796661e-07 1.65346720130445e-07
            0.214676  0.00209506303127677 -2.0344615466843e-07 1.92506833052201e-07 1.16529322938216e-07 1.52276019352779e-07
            0.219046  0.00213758691527694 1.34034564945008e-07 1.85463801500383e-07 1.07825404647258e-07 1.40474468629248e-07
            0.223416  0.00218010329175235  2.1472039275335e-07 1.78749508544899e-07 9.36140325007893e-08 1.29794529113052e-07
            0.227785  0.00222260228182847 2.73939363766237e-07 1.72362588838867e-07  7.6071132760084e-08 1.20112775456989e-07
            0.232153  0.00226508373839712 -1.92730726124815e-07  1.6629918688828e-07 5.74251577311155e-08 1.11319190224122e-07
             0.23652  0.00230754751440005 1.31657244798409e-07 1.60552855474477e-07 3.96943289157008e-08  1.0331765630191e-07
            0.240887  0.00235000318381663 3.56785647162366e-07 1.55112673340414e-07 2.45205226212127e-08 9.60223890605488e-08
            0.245253  0.00239244087487268 -1.65466233590328e-07 1.49967020224079e-07 1.30929978672991e-08 8.93613341537601e-08
            0.249618  0.00243486044053831 -1.1279530705775e-07    1.45100227927e-07 6.12413571491651e-09 8.32693842592446e-08
            0.253982  0.00247726173382167 -3.24792952863855e-07 1.40492756485004e-07 3.76345182611604e-09 7.76891038330426e-08
            0.258346  0.00251965432091536 1.26498243524325e-07 1.36106916769059e-07 4.14530486017766e-09 7.25685884454619e-08
